<Actel_Data_File>
    <format name="NVM File" version="01.00.00"/>
    <header>
        <die>
            MPFS095T
        </die>
        <family>
            PolarFireSoC
        </family>
        <module>
            snvm
        </module>
        <package>
            FCSG325
        </package>
        <version>
            2025.1.0.14
        </version>
    </header>
    <nvm>
        <region name="INIT_STAGE_2_3_SNVM_CLIENT" address="0x000000" retrieveAddressFromFile="false" size="20616" format="HEX" type="PlainText NonAuthenticated" wordSize="8" numberWords="20616" memFile="designer\BaseDesign\BaseDesign_init_stage_2_3_snvm.mem" memType="Microsemi Binary 32-bit" memFileTimeStamp="" clientType="public" program="true">
            <write_protect/>
            <fabric_accessible/>
            <fabric_accessible_as_rom/>
            <mss_accessible/>
            <mss_accessible_as_rom/>
            00401413000000206f000000106800006f000000c0200000000000000000
            000000000000000000006f00000000440000000000000000000000000000
            0000000000000000000000006f0000008060000000000000000000000000
            00000000000000000000000000006f000000008000000000000000000000
            0000000000000000000000000000000000000000000000006f000000409c
            00006f00000080bc00000000000000000000000000000000000000000000
            0000000000000000000000006f000000500c00006f00000080a401006f00
            000040d800006f00000080f800006f000000c01801006f000000003c0100
            6f000000405c01006f000000807c01006f00000040c001006f00000080e0
            010013000000000000001300000000000000130000000000000013040000
            01e003002380000011000000238800002100000023900000310000002398
            00004100000023a000005100000023a800006100000023b0000071000000
            23b8000081000000238000009108000023880000a108000023900000b108
            000023980000c108000023a00000d108000023a80000e108000023b00000
            f108000023b80000010c0000238000001114000023880000211400002390
            000031140000239800004114000023a000005114000023a8000061140000
            23b000007114000023b800008114000023800000911c000023880000a11c
            000023900000b11c000023980000c11c000023a00000d11c000023a80000
            e11c000023b00000f11c00007394000020d00000f394000010d00000ef00
            000010a401006f000000c0fc01001304000001e003002380000011000000
            23880000210000002390000031000000239800004100000023a000005100
            000023a800006100000023b000007100000023b800008100000023800000
            9108000023880000a108000023900000b108000023980000c108000023a0
            0000d108000023a80000e108000023b00000f108000023b80000010c0000
            238000001114000023880000211400002390000031140000239800004114
            000023a000005114000023a800006114000023b000007114000023b80000
            8114000023800000911c000023880000a11c000023900000b11c00002398
            0000c11c000023a00000d11c000023a80000e11c000023b00000f11c0000
            ef000000505401006f00000040dc01001304000001e00300238000001100
            000023880000210000002390000031000000239800004100000023a00000
            5100000023a800006100000023b000007100000023b80000810000002380
            00009108000023880000a108000023900000b108000023980000c1080000
            23a00000d108000023a80000e108000023b00000f108000023b80000010c
            000023800000111400002388000021140000239000003114000023980000
            4114000023a000005114000023a800006114000023b000007114000023b8
            00008114000023800000911c000023880000a11c000023900000b11c0000
            23980000c11c000023a00000d11c000023a80000e11c000023b00000f11c
            0000ef00000090dc00006f000000c0b801001304000001e0030023800000
            1100000023880000210000002390000031000000239800004100000023a0
            00005100000023a800006100000023b000007100000023b8000081000000
            238000009108000023880000a108000023900000b108000023980000c108
            000023a00000d108000023a80000e108000023b00000f108000023b80000
            010c00002380000011140000238800002114000023900000311400002398
            00004114000023a000005114000023a800006114000023b0000071140000
            23b800008114000023800000911c000023880000a11c000023900000b11c
            000023980000c11c000023a00000d11c000023a80000e11c000023b00000
            f11c0000ef00000090a401006f000000409801001304000001e003002380
            000011000000238800002100000023900000310000002398000041000000
            23a000005100000023a800006100000023b000007100000023b800008100
            0000238000009108000023880000a108000023900000b108000023980000
            c108000023a00000d108000023a80000e108000023b00000f108000023b8
            0000010c0000238000001114000023880000211400002390000031140000
            239800004114000023a000005114000023a800006114000023b000007114
            000023b800008114000023800000911c000023880000a11c000023900000
            b11c000023980000c11c000023a00000d11c000023a80000e11c000023b0
            0000f11c0000ef000000909001006f000000c07401001304000001e00300
            238000001100000023880000210000002390000031000000239800004100
            000023a000005100000023a800006100000023b000007100000023b80000
            81000000238000009108000023880000a108000023900000b10800002398
            0000c108000023a00000d108000023a80000e108000023b00000f1080000
            23b80000010c000023800000111400002388000021140000239000003114
            0000239800004114000023a000005114000023a800006114000023b00000
            7114000023b800008114000023800000911c000023880000a11c00002390
            0000b11c000023980000c11c000023a00000d11c000023a80000e11c0000
            23b00000f11c0000ef000000506801006f000000405401001304000001e0
            030023800000110000002388000021000000239000003100000023980000
            4100000023a000005100000023a800006100000023b000007100000023b8
            000081000000238000009108000023880000a108000023900000b1080000
            23980000c108000023a00000d108000023a80000e108000023b00000f108
            000023b80000010c00002380000011140000238800002114000023900000
            31140000239800004114000023a000005114000023a800006114000023b0
            00007114000023b800008114000023800000911c000023880000a11c0000
            23900000b11c000023980000c11c000023a00000d11c000023a80000e11c
            000023b00000f11c0000ef000000105c01006f000000c030010013040000
            01e003002380000011000000238800002100000023900000310000002398
            00004100000023a000005100000023a800006100000023b0000071000000
            23b8000081000000238000009108000023880000a108000023900000b108
            000023980000c108000023a00000d108000023a80000e108000023b00000
            f108000023b80000010c0000238000001114000023880000211400002390
            000031140000239800004114000023a000005114000023a8000061140000
            23b000007114000023b800008114000023800000911c000023880000a11c
            000023900000b11c000023980000c11c000023a00000d11c000023a80000
            e11c000023b00000f11c0000ef000000504001006f000000401001001304
            000001e00300238000001100000023880000210000002390000031000000
            239800004100000023a000005100000023a800006100000023b000007100
            000023b8000081000000238000009108000023880000a108000023900000
            b108000023980000c108000023a00000d108000023a80000e108000023b0
            0000f108000023b80000010c000023800000111400002388000021140000
            2390000031140000239800004114000023a000005114000023a800006114
            000023b000007114000023b800008114000023800000911c000023880000
            a11c000023900000b11c000023980000c11c000023a00000d11c000023a8
            0000e11c000023b00000f11c0000ef000000902401006f000000c0ec0000
            1304000001e0030023800000110000002388000021000000239000003100
            0000239800004100000023a000005100000023a800006100000023b00000
            7100000023b8000081000000238000009108000023880000a10800002390
            0000b108000023980000c108000023a00000d108000023a80000e1080000
            23b00000f108000023b80000010c00002380000011140000238800002114
            00002390000031140000239800004114000023a000005114000023a80000
            6114000023b000007114000023b800008114000023800000911c00002388
            0000a11c000023900000b11c000023980000c11c000023a00000d11c0000
            23a80000e11c000023b00000f11c0000ef000000d00801006f00000040cc
            00001304000001e003002380000011000000238800002100000023900000
            31000000239800004100000023a000005100000023a800006100000023b0
            00007100000023b8000081000000238000009108000023880000a1080000
            23900000b108000023980000c108000023a00000d108000023a80000e108
            000023b00000f108000023b80000010c0000238000001114000023880000
            211400002390000031140000239800004114000023a000005114000023a8
            00006114000023b000007114000023b800008114000023800000911c0000
            23880000a11c000023900000b11c000023980000c11c000023a00000d11c
            000023a80000e11c000023b00000f11c0000ef00000010f000006f000000
            c0a800001304000001e00300238000001100000023880000210000002390
            000031000000239800004100000023a000005100000023a8000061000000
            23b000007100000023b8000081000000238000009108000023880000a108
            000023900000b108000023980000c108000023a00000d108000023a80000
            e108000023b00000f108000023b80000010c000023800000111400002388
            0000211400002390000031140000239800004114000023a0000051140000
            23a800006114000023b000007114000023b800008114000023800000911c
            000023880000a11c000023900000b11c000023980000c11c000023a00000
            d11c000023a80000e11c000023b00000f11c0000ef00000050d400006f00
            0000408800001304000001e0030023800000110000002388000021000000
            2390000031000000239800004100000023a000005100000023a800006100
            000023b000007100000023b8000081000000238000009108000023880000
            a108000023900000b108000023980000c108000023a00000d108000023a8
            0000e108000023b00000f108000023b80000010c00002380000011140000
            23880000211400002390000031140000239800004114000023a000005114
            000023a800006114000023b000007114000023b800008114000023800000
            911c000023880000a11c000023900000b11c000023980000c11c000023a0
            0000d11c000023a80000e11c000023b00000f11c0000ef00000050880000
            6f000000c06400001304000001e003002380000011000000238800002100
            00002390000031000000239800004100000023a000005100000023a80000
            6100000023b000007100000023b800008100000023800000910800002388
            0000a108000023900000b108000023980000c108000023a00000d1080000
            23a80000e108000023b00000f108000023b80000010c0000238000001114
            000023880000211400002390000031140000239800004114000023a00000
            5114000023a800006114000023b000007114000023b80000811400002380
            0000911c000023880000a11c000023900000b11c000023980000c11c0000
            23a00000d11c000023a80000e11c000023b00000f11c0000004014330040
            1443004096120000002083800000c1000000039000008100000013040000
            0104000067000200000000001304000001fc030023980000110000002390
            0000810000001310000001040000931800001000000013180000a0040000
            b714000000c401001314020081380200efc003000f780300131800002000
            0000b714000000d401001314020001380200efc00300dfa4020093140000
            000000001314020001380200efc003005f000300efc003000f3003003714
            0000001c0000efc003005fb4030013140000407c00009314000000000000
            ef8003005fd8020013180000001000009314020001280200131402008138
            0200efc00300df100200931c00000500000013dc0300f73c0000931c0200
            4124020023000200e7000000931c020041240200831c03000700000093dc
            0300f73c0000e328020007f0030093140200012802001314020081380200
            efc003005f5c0200931c02004124020023000200070000006fc00300dfec
            0300931c000005000000931c020017000000031c0300f7fc0300e3700000
            07f8030033140200a700010013140000f5fc03006700020000000000971c
            000000000000931c02004738000093180000060000001318020005000000
            931400000500000003940200070000006f000000400000001304000001fc
            030023900000810000001310000005000000131402000500000093140000
            06000000131802000600000023a00200013802002398000011000000efc0
            03004fd80200931c0000f0fc030063680000f5000000931c0200013c0200
            839c020007000000631002000700000023800000f400000083800000c100
            000003900000810000001304000001040000670002000000000000000000
            000000000000000000000000000000000000000080440000000002006444
            0000000002009c44000000000200b0480000000002006048000000000200
            604800000000020060480000000002006048000000000200b84400000000
            0200d444000000000200f0440000000002000c4800000000020028480000
            0000020044480000000002007848000000000200944800000000020030e0
            0100000000000a40010072bc0100678401006d8000006884010073800000
            65e0010069d001006590010020dc010069d001006880000063bc01006494
            01003a000000000000000000000000000000000000000000000000000000
            00000000c084000000000200000000000000000000000000000000000000
            000000000000000000000000000000000000000000000000000000000000
            000000000000000000000000000000000000000000000000000000000000
            000000000000000000000000000000000000000000000000000000000000
            000000000000000000000000000000000000000000000000000000000000
            000000000000000000000000000000000000000000000000000000000000
            000000000000000000000000000000000000000000000000000000000000
            000000000000000000000000000000000000000000000000000000000000
            000000000000000000000000000000000000000000000000000000000000
            000000000000000000000000000000000000000000000000000000000000
            000000000000000000000000000000000000000000000000000000000000
            000000000000000000000000000000000000000000000000000000000000
            000000000000000000000000000000000000000000000000000000000000
            000000000000000000000000000000000000000000000000000000000000
            000000000000000000000000000000000000000000000000000000000000
            000000000000000000000000000000000000000000000000000000000000
            000000000000000000000000000000000000000000000000000000000000
            000000000000000000000000000000000000000000000000000000000000
            000000000000000000000000000000000000000000000000000000000000
            000000000000000000000000000000000000000000000000000000000000
            000000000000000000000000000000000000000000000000000000000000
            000000000000000000000000000000000000000000000000000000000000
            000000000000000000000000000000000000000000000000000000000000
            000000000000000000000000000000000000000000000000000000000000
            000000000000000000000000000000000000000000000000000000000000
            000000000000000000000000000000000000000000000000000000000000
            000000000000000000000000000000000000000000000000000000000000
            000000000000000000000000000000000000000000000000000000000000
            000000000000000000000000000000000000000000000000000000000000
            000000000000000000000000000000000000000000000000000000000000
            000000000000000000000000000000000000000000000000000000000000
            000000000000000000000000000000000000000000000000000000000000
            000000000000000000000000000000000000000000000000000000000000
            000000000000000000000000000000000000000000000000000000000000
            000000000000000000000000000000000000000000000000000000000000
            000000000000000000000000000000000000000000000000000000000000
            000000000000000000000000000000000000000000000000000000000000
            000000000000000000000000000000000000000000000000000000000000
            000000000000000000000000000000000000000000000000000000000000
            000000000000000000000000000000000000000000000000000000000000
            000000000000000000000000000000000000000000000000000000000000
            000000000000000000000000000000000000000000000000000000000000
            000000000000000000000000000000000000000000000000000000000000
            000000000000000000000000000000000000000000000000000000000000
            000000000000000000000000000000000000000000000000000000000000
            000000000000000000000000000000000000000000000000000000000000
            000000000000000000000000000000000000000000000000000000000000
            000000000000000000000000000000000000000000000000000000000000
            000000000000000000000000000000000000000000000000000000000000
            000000000000000000000000000000000000000000000000000000000000
            000000000000000000000000000000000000000000000000000000000000
            000000000000000000000000000000000000000000000000000000000000
            000000000000000000000000000000000000000000000000000000000000
            000000000000000000000000000000000000000000000000000000000000
            000000000000000000000000000000000000000000000000000000000000
            000000000000000000000000000000000000000000000000000000000000
            000000000000000000000000000000000000000000000000000000000000
            000000000000000000000000000000000000000000000000000000000000
            000000000000000000000000000000000000000000000000000000000000
            000000000000000000000000000000000000000000000000000000000000
            000000000000000000000000000000000000000000000000000000000000
            000000000000000000000000000000000000000000000000000000000000
            000000000000000000000000000000000000000000000000000000000000
            000000000000000000000000000000000000000000000000000000000000
            000000000000000000000000000000000000000000000000000000000000
            000000000000000000000000000000000000000000000000000000000000
            000000000000000000000000000000000000000000000000000000000000
            000000000000000000000000000000000000000000000000000000000000
            000000000000000000000000000000000000000000000000000000000000
            000000000000000000000000000000000000000000000000000000000000
            000000000000000000000000000000000000000000000000000000000000
            000000000000000000000000000000000000000000000000000000000000
            000000000000000000000000000000000000000000000000000000000000
            000000000000000000000000000000000000000000000000000000000000
            000000000000000000000000000000000000000000000000000000000000
            000000000000000000000000000000000000000000000000000000000000
            000000000000000000000000000000000000000000000000000000000000
            000000000000000000000000000000000000000000000000000000000000
            000000000000000000000000000000000000000000000000000000000000
            000000000000000000000000000000000000000000000000000000000000
            000000000000000000000000000000000000000000000000000000000000
            000000000000000000000000000000000000000000000000000000000000
            000000000000000000000000000000000000000000000000000000000000
            000000000000000000000000000000000000000000000000000000000000
            000000000000000000000000000000000000000000000000000000000000
            000000000000000000000000000000000000000000000000000000000000
            000000000000000000000000000000000000000000000000000000000000
            000000000000000000000000000000000000000000000000000000000000
            000000000000000000000000000000000000000000000000000000000000
            000000000000000000000000000000000000000000000000000000000000
            000000000000000000000000000000000000000000000000000000000000
            000000000000000000000000000000000000000000000000000000000000
            000000000000000000000000000000000000000000000000000000000000
            000000000000000000000000000000000000000000000000000000000000
            000000000000000000000000000000000000000000000000000000000000
            000000000000000000000000000000000000000000000000000000000000
            000000000000000000000000000000000000000000000000000000000000
            000000000000000000000000000000000000000000000000000000000000
            000000000000000000000000000000000000000000000000000000000000
            000000000000000000000000000000000000000000000000000000000000
            000000000000000000000000000000000000000000000000000000000000
            000000000000000000000000000000000000000000000000000000000000
            000000000000000000000000000000000000000000000000000000000000
            000000000000000000000000000000000000000000000000000000000000
            000000000000000000000000000000000000000000000000000000000000
            000000000000000000000000000000000000000000000000000000000000
            000000000000000000000000000000000000000000000000000000000000
            000000000000000000000000000000000000000000000000000000409632
            0040964200001613000000206318020007080000039c0000c4e80300b71c
            000000000200931c030007f80300b3dc0100f70000006370020007000000
            839c0000c4e8030093dc0300f73c00001314020007000000efc00300dfbc
            03006f00000080300000039c0000c4e80300b71c000000000200931c0300
            f7fc030033dc0100f7000000931c0000b000000063580000f7000000ef00
            0000404000006f00000080280000039c0000c4e80300b71c000000000200
            931c0300f7fc030033dc0100f7000000931c00003000000063580000f700
            0000efc003001fa403006f00000080200000039c0000c4e80300b71c0000
            00000200931c0300f7fc030033dc0100f7000000931c0000700000006360
            0000f7180000efc00300df4403006f00000080180000f39c000040d00000
            23880000f4f80300839c000044f8030023800000f4f80300f39c000030d0
            000023b80000f4f00300839c0000c4f4030023b00000f4f00300f39c0000
            50c0000023a80000f4f00300839c000044f4030023a00000f4f00300f39c
            000000d0000023980000f4f00300839c0000c4f0030023900000f4f00300
            f39c000000c0000023880000f4f00300839c000044f0030023800000f4f0
            0300f39c000010d0000023b80000f4e80300839c0000c4ec030023b00000
            f4e803007300000010000000130000000000000083800000c11400000390
            000081140000130400000118000067000200000000001304000001fc0300
            239800001100000023900000810000001310000001040000ef000000d0bc
            0100130000000000000083800000c1000000039000008100000013040000
            0104000067000200000000001304000001fc030023980000810000001310
            000001040000130000000000000003900000c10000001304000001040000
            67000200000000001304000001fc03002398000081000000131000000104
            0000130000000000000003900000c1000000130400000104000067000200
            000000001304000001fc0300239800008100000013100000010400001300
            00000000000003900000c100000013040000010400006700020000000000
            1304000001fc030023980000810000001310000001040000130000000000
            000003900000c10000001304000001040000670002000000000013040000
            01fc03002398000081000000131000000104000013000000000000000390
            0000c1000000130400000104000067000200000000001304000001fc0300
            23980000810000001310000001040000130000000000000003900000c100
            0000130400000104000067000200000000001304000001fc030023980000
            810000001310000001040000130000000000000003900000c10000001304
            00000104000067000200000000001304000001fc03002398000081000000
            1310000001040000130000000000000003900000c1000000130400000104
            000067000200000000001304000001fc0300239800008100000013100000
            01040000130000000000000003900000c100000013040000010400006700
            0200000000001304000001fc030023980000810000001310000001040000
            130000000000000003900000c10000001304000001040000670002000000
            00001304000001fc03002398000081000000131000000104000013000000
            0000000003900000c1000000130400000104000067000200000000001304
            000001fc0300239800001100000023900000810000001310000001040000
            13140000a0000000ef000000806800001304000001fc0300239800008100
            00001310000001040000130000000000000003900000c100000013040000
            0104000067000200000000001304000001fc030023980000810000001310
            000001040000130000000000000003900000c10000001304000001040000
            67000200000000001304000001fc03002398000081000000131000000104
            0000130000000000000003900000c1000000130400000104000067000200
            000000001304000001f8030023b800001100000023b00000810000001310
            00000108000023980000a4f80300931c0200c1200200839c020007000000
            6348020007080000931800001000000013180000a0040000b714000000c4
            01001314020041200200ef00000040c40000931c0200c1200200131c0000
            1000000023800200e7000000931c0000c4f8030013180000100000009314
            0200070000001314020041200200ef000000c0300100839c0000c4f80300
            131402000700000083800000c10400000390000081040000130400000108
            000067000200000000001304000001f40300239800001108000023900000
            8108000013100000010c000023b80000a4f0030023b00000b4f003001318
            000020000000975400000000000093140200c588030003940000c4f40300
            ef000000d0580100931c00008000000023980000f4f803006f0000004024
            0000839c0000c4f80300931c0200f7fc030023900000f4f80300839c0000
            84f80300935c020027000000131c0000f0000000335c0000f7000000839c
            000084f4030033dc0100f7000000839c000084f80300935c020027000000
            b35c0100f7000000a30c0000f4f80300031c010074f80300931c00009000
            000063b80300e7000000831c010074f80300931c02008710000093dc0300
            f73c0000935c020087040000935c0300870401006f00000080040000831c
            010074f80300931c0200b714000093dc0300f73c0000935c020087040000
            935c030087040100230c0000f4f80300931c000064f80300131800001000
            0000931402000700000003940000c4f40300ef000000d0340100839c0000
            c4f80300931c0200f7fc030023980000f4f80300839c0000c4f80300e358
            020007d80300130000000000000083800000c10800000390000081080000
            13040000010c000067000200000000001304000001f40300239800001108
            0000239000008108000013100000010c000023b80000a4f00300975c0000
            00000000931c02004754030023980000f4f8030003940000c4f80300ef00
            0000101c0100931c000005000000131802000700000083940000c4f80300
            1314000020000000ef000000901c0100839c0000c4f40300931402000700
            00001314000020000000efc003005fb403006f0000000000000013040000
            01f403002398000011080000239000008108000013100000010c000023b8
            0000a4f0030023b00000b4f0030023a80000c4f00300839c000084f40300
            23900000f4f803002398000004f803006f00000080080000839c0000c4f8
            0300039c000084f80300b31c0000f7000000831c02000700000013140200
            07000000efc003001f880300839c0000c4f80300931c0200170000002398
            0000f4f80300839c000044f40300131c0200f7fc030023a80000e4f00300
            e360020007f00300931c0200012402002380020007000000839c0000c4f8
            0300131402000700000083800000c1080000039000008108000013040000
            010c000067000200000000001304000001f8030023b80000810000001310
            000001080000f39c010004c0000023980000f4f803001300000000000000
            03900000c1040000130400000108000067000200000000001304000001fc
            0300239800001100000023900000810000001310000001040000efc00300
            dff00300130000000000000083800000c100000003900000810000001304
            000001040000670002000000000023800000b50000006700020000000000
            03940000050000006700020000000000133802000600000033780000be00
            000033f80100ce000000038c000005000000930c000006000000930c0300
            f3fc030033cc010073000000338c0100c304000023800000650000006700
            020000000000039400000500000033d40100c500000033540100b5000000
            670002000000000023400000b50000006700020000000000035400000500
            00006700020000000000133802000600000033780000be00000033f80100
            ce000000034c000005000000930c000006000000930c0300f3fc030033cc
            010073000000338c0100c304000023400000650000006700020000000000
            035400000500000033d40100c500000033540100b5000000670002000000
            000023000000b50000006700020000000000031400000500000067000200
            00000000133802000600000033780000be00000033f80100ce000000030c
            000005000000930c000006000000930c0300f3fc030033cc010073000000
            338c0100c304000023000000650000006700020000000000031400000500
            000033d40100c500000033540100b5000000670002000000000013040000
            01f403002398000011080000239000008108000013100000010c000023b8
            0000a4f0030023b00000b4f00300931c000006000000131c020006000000
            236c0000f4f00300931c000007000000a3280000f4f00300839c0000c4f4
            030063500200070000007300000010000000031c010054f40300931c0000
            7000000063d00300e70000007300000010000000035c010064f40300b79c
            00000000000063900100f70000007300000010000000839c0000c4f40300
            6310020007580000031c010054f40300931c00007000000063b80300e750
            0000035c010064f40300b79c00000000000063e00100f7500000839c0000
            84f40300131c020087000000835c010064f4030093dc0300f73c00009314
            0200070000001314000007000000efc003009fc80300839c000084f40300
            93180200c7000000031c010054f40300835c010064f40300935c03005700
            010093dc030087fc0100b39c0100f7000000931402000700000013140200
            06000000efc003001fc00300839c0000c4f40300039c000084f403002380
            0200e7000000839c0000c4f40300839c020007000000931c020087000000
            1314020007000000efc003009fb80300931c00000500000023580000f4f8
            0300839c0000c4f40300839c020007000000931c0200c700000013140200
            07000000efc00300dfb00300931c000005000000a3140000f4f80300831c
            0100b4f8030093dc030087fc030023140000f4f80300831c0100a4f80300
            935c020007040000935c030007040000935c020057000000135c02000704
            0000135c010007040000835c0100c4f80300b39c0100f700000023580000
            f4f80300831c0100b4f8030093dc030077000000a3140000f4f80300035c
            0100c4f80300835c010064f4030063100000f70000007300000010000000
            031c0100b4f80300831c010054f4030063100000f7000000730000001000
            0000839c0000c4f40300839c020007000000931c02000704000013140200
            07000000efc003005f940300931c00000500000093dc030027000000a31c
            0000f4f803006f000000800c0000839c0000c4f40300839c020007000000
            931c0200470000001314020007000000efc003001f8c0300839c0000c4f4
            0300839c020007000000931c0200070400001314020007000000efc00300
            df840300931c00000500000093dc030027000000a31c0000f4f80300831c
            0100f4f80300e350020007f00300839c0000c4f403002308020007000000
            130000000000000083800000c1080000039000008108000013040000010c
            000067000200000000001304000001f40300239800001108000023900000
            8108000013100000010c000023b80000a4f0030023b00000b4f003000000
            16330000164300009a1200000020ef000000909c00006f00000040440000
            1304000001e0030023800000110000002388000021000000239000003100
            0000239800004100000023a000005100000023a800006100000023b00000
            7100000023b8000081000000238000009108000023880000a10800002390
            0000b108000023980000c108000023a00000d108000023a80000e1080000
            23b00000f108000023b80000010c00002380000011140000238800002114
            00002390000031140000239800004114000023a000005114000023a80000
            6114000023b000007114000023b800008114000023800000911c00002388
            0000a11c000023900000b11c000023980000c11c000023a00000d11c0000
            23a80000e11c000023b00000f11c0000ef000000d08000006f000000c020
            00001304000001e003002380000011000000238800002100000023900000
            31000000239800004100000023a000005100000023a800006100000023b0
            00007100000023b8000081000000238000009108000023880000a1080000
            23900000b108000023980000c108000023a00000d108000023a80000e108
            000023b00000f108000023b80000010c0000238000001114000023880000
            211400002390000031140000239800004114000023a000005114000023a8
            00006114000023b000007114000023b800008114000023800000911c0000
            23880000a11c000023900000b11c000023980000c11c000023a00000d11c
            000023a80000e11c000023b00000f11c0000ef000000106800006f000000
            400000008380000001000000038400004100000083840000810000000388
            0000c10000008388000001040000038c000041040000838c000081040000
            03900000c104000083900000010800000394000041080000839400008108
            000003980000c108000083980000010c0000039c0000410c0000839c0000
            810c000003a00000c10c000083a000000110000003a400004110000083a4
            00008110000003a80000c110000083a800000114000003ac000041140000
            83ac00008114000003b00000c114000083b000000118000003b400004118
            000083b400008118000003b80000c118000083b80000011c000003bc0000
            411c000083bc0000811c000013040000012000007300000020c000000000
            0000000000007340010000c000007340010040c0000097c00300fffc0300
            9300020080940100b70803000008000093080200c2fc0300238002000200
            0000f388000010c0000093c80300120000006358020002080000f3880000
            50c0000093c8030032000000130c0000100000006378020062000000f388
            000050c0000093c80300c2fc030017cc0300fffc0300130c000043880100
            63600200621000006f0000000004000097c80300fffc0300930802004284
            01007340020052c00000175c000000000000131c000047ec0100975c0000
            00000000931c0200c7e8010017600000000000001320000048ec01006320
            0000f700000063180200070400009700000000000000e700020040240000
            978400000000000093040200c1e00300ef00000000040000130402000140
            01006f00000000b4010073000000100000009308020000000000931c0200
            0128020013200200014002006310020007040000ef00000040100000931c
            0200011c020013200200012802006330020007040000ef000000400c0000
            931c02000140020013200200014003006310020007040000ef0000004008
            0000131c020001040200931c02000104020013200200011c020063180000
            f70000006310020007040000ef000000c008000093000200020000006700
            02000000000063900100f8100000b3a00100f800000093e0030038000000
            63380100100c00002380020007000000931c020047000000e330030007fc
            0300670002000000000063900100f8080000b3a00100f800000093e00300
            38000000633801001004000083a00000070000002380020017040000931c
            020047000000131c000047000000e320030007fc03006f00000080000000
            6f0000000000000067000200000000001304000001f8030023b800008100
            00001310000001080000f39c010004c0000023980000f4f8030013000000
            0000000003900000c1040000130400000108000067000200000000001304
            000001f8030023b800008100000013100000010800002398000004f80300
            2390000004f80300371403000008000013140000c5fc0300039400000500
            000023980000a4f8030037140300000800001314000085fc030003940000
            0500000023900000a4f80300371403000008000013140000c5fc030083a0
            00000500000003940000c4f80300e3600200a8f003003714030000080000
            13140000c5fc03000394000005000000130c000005000000930c00000000
            00001360000003000000931c0000000000000394000084f8030093180000
            05000000131c000000000000b3940300d700000033980100e8000000931c
            020005000000132000000600000013140200070000009314000008000000
            03900000c1040000130400000108000067000200000000001304000001fc
            030023980000810000001310000001040000b79c010000000000039c0200
            07080000b79c01000000000013dc0100d7fc030023800200e70800001300
            00000000000003900000c100000013040000010400006700020000000000
            1304000001f0030023b800001108000023b000008108000023a80000210c
            000023a00000310c0000131000000110000023900000a4f0030023980000
            b4f00300931c00001000000023980000f4f80300839c000084f0030003a0
            0000c4f0030023800000f4f803002388000004fc0300931c0200011c0200
            9318000000000000131c00000000000023800200d700000023880200e700
            0000931c0200811c020023800200d700000023880200e70000006f000000
            c01c0000b75c010000080000839c020007000000130c020007000000930c
            0000000000008398000004f80300039c000044f80300b31c020066000100
            131802000700000033d80200c60000003320000077000100331c0000c800
            0100132000000700000023800000f4f803002388000004fc0300931c0200
            011c020003a0020047000000839c02000700000093140000100000001318
            000000000000b3180200b7000000131402000600000033d40000f5000000
            331c0000c8000000b31c0000e5000000131c020007000000931c02000600
            00001320000007000000131c0200011c020023800000f700000023880000
            07040000b75c010000080000839c02000700000013380200070000009338
            000000000000839c000044f80300131c02000e00000063b80300e7000000
            839c000044f80300131c02000e000000e3480200e7d80300839c000004f8
            0300131c00000e000000e3f00300e7d00300efc003005f8c030093180000
            05000000131c020005000000931c0200011c020083940200070000000398
            020047000000b31c0200b6000000131402000700000033d40000d5000000
            33200000c7000000331c0000050400001320000007000000131c0200811c
            020023800000f70000002388000007040000931c0200011c020083980200
            07000000039c020047000000931c020006000000b39c0300e70000006300
            020007180000b71c010000080000931c020047000000131c0000f0fc0300
            23800200e7000000931c0200811c020003a0020047000000839c02000700
            0000371c01000008000023800000f7000000931c0200811c020003a00200
            47000000839c02000700000013640100080000009324000000000000b71c
            010000080000931c020047000000131c00000900000023800200e7000000
            931c000000200000f39c020047c0000023b80000f4f00300efc003009f58
            03002398000004f80300839c0000c4f80300131402000700000083800000
            c10c000003900000810c000003a40000410c000083a40000010c00001304
            00000110000067000200000000001304000001f403002398000011080000
            239000008108000023880000210c000023800000310c000013100000010c
            0000931c000000200000f3dc020047c0000023980000f4f80300efc00300
            1f50030023800000a4f8030023880000b4f803006f000000c0140000931c
            0200811c020003a0020047000000839c020007000000131c0200011c0200
            83940000070000000398000047000000b3180200b7000000131402000600
            000033d40000f5000000331c0000c8000000b31c0000e5000000131c0200
            07000000931c0200060000001320000007000000131c0200811c02002380
            0000f70000002388000007040000931c020001200200839c020007000000
            131c020017000000931c02000120020023800200e7000000839c000004f8
            030003a0000044f8030093140000500000001318000000000000b3180200
            b7000000131402000600000033d40000f5000000331c0000c8000000b31c
            0000e5000000131c020007000000931c0200811c020003a0020047000000
            839c02000700000093140000070000001318000008000000e3980100b6d8
            03009314000007000000131800000800000063580200c5000000131c0200
            06000000e3b00300e7d00300b71c010000080000931c020047000000131c
            0000f0fc030023800200e7000000931c0200811c020003a0020047000000
            839c020007000000371c01000008000023800000f7000000931c0200811c
            020003a0020047000000839c020007000000136401000800000093240000
            00000000b71c010000080000931c020047000000131c0000090000002380
            0200e7000000ef40000080380000931c000000200000f39c020047c00000
            23b80000f4f00300130000000000000083800000c1080000039000008108
            000003a400004108000083a400000108000013040000010c000067000200
            000000001304000001fc0300239800001100000023900000810000001310
            000001040000ef40000040200000efc003001f2403001300000000000000
            83800000c100000003900000810000001304000001040000670002000000
            00001304000001f0030023b800001108000023b000008108000013100000
            01100000931c000005000000a31c0000f4f00300f39c000040c403002398
            0000f4f80300839c0000c4f8030023800000f4f803002388000004f80300
            031c0100f4f00300931c0000f004000063d00300e7000000730000001000
            0000031c0100f4f00300931c0000f000000063900300e700000073000000
            10000000831c0100f4f00300931c020007fc0300a33c0000f4f00300831c
            0100f4f40300175c000000000000131c000047700000935c020027000000
            b31c0000f7000000839c020007000000e700020007000000130000000000
            000083800000c10c000003900000810c0000130400000110000067000200
            000000001304000001e8030023b800001110000023b00000811000001310
            00000118000023980000a4e8030023900000b4e80300039c0000c4e80300
            931c0000070000001320000000000000371c00000000020033dc0300e700
            000023900000e4f8030093dc01000800000023980000f4f80300839c0000
            84f80300039c0000c4f80300b39c0300e70000006300020007280000039c
            0000c4e80300b71c000000000200931c030007fc0300b3dc0100f7000000
            00009a3200009a42004016130000002023a80000c4f00300839c0000c4f4
            030063500200070000007300000010000000839c000084f4030063500200
            070000007300000010000000839c000044f4030063500200070000007300
            000010000000839c0000c4f403006300020007200000839c000084f40300
            6330020007180000839c000044f4030063200200071800002398000004f8
            03006f000000c0140000839c0000c4f40300839c020007000000931c0200
            070400001314020007000000efc003009f5c0300931c00000500000093dc
            030017000000a3140000f4f80300831c0100b4f80300e338020007f00300
            839c0000c4f403008398020007000000039c000084f40300839c0000c4f8
            0300b31c0000f7000000831c030007000000931402000700000013140200
            06000000efc003009f4c0300839c0000c4f80300931c0200170000002398
            0000f4f80300039c0000c4f80300839c000044f40300e3800100f7e80300
            130000000000000083800000c1080000039000008108000013040000010c
            000067000200000000001304000001f40300239800001108000023900000
            81080000238800009108000013100000010c000023b80000a4f0030023b0
            0000b4f0030023a80000c4f003002390000004f80300839c0000c4f40300
            63500200070000007300000010000000839c000084f40300635002000700
            00007300000010000000839c000044f40300635002000700000073000000
            10000000839c0000c4f403006318020007380000839c000084f403006308
            020007380000839c000044f4030063380200073000002390000004f80300
            839c0000c4f40300839c020007000000931c020007040000131402000700
            0000efc00300df240300931c000005000000a30c0000f4f80300839c0000
            c4f40300031c030047000000831c010074f80300b39c0100f700000013dc
            0300f73c0000839c0000c4f4030023080200e7000000831c010074f80300
            93dc030027000000a31c0000f4f803006f000000c01c0000839c0000c4f4
            0300839c0200070000009318020047000000039c000084f40300839c0000
            84f80300b3100000f70000001314020006000000efc003009f100300931c
            00000500000023000200f4000000839c000084f80300931c020017000000
            23900000f4f80300839c0000c4f40300839c020007000000931c02000704
            00001314020007000000efc003001f080300931c000005000000a30c0000
            f4f80300839c0000c4f40300031c030047000000831c010074f80300b39c
            0100f700000013dc0300f73c0000839c0000c4f4030023080200e7000000
            831c010074f8030093dc030027000000a31c0000f4f80300831c0100f4f8
            03006320020007000000039c000084f80300839c000044f40300e3b00100
            f7d80300839c000084f80300131402000700000083800000c10800000390
            000081080000839000004108000013040000010c00006700020000000000
            1304000001f403002398000011080000239000008108000013100000010c
            000023b80000a4f0030023b00000b4f00300839c0000c4f4030063500200
            070000007300000010000000839c000084f4030063500200070000007300
            000010000000839c0000c4f403006300020007200000839c000084f40300
            63300200071800002398000004f803006f000000c0140000839c0000c4f4
            0300839c020007000000931c0200070400001314020007000000efc00300
            5fd80200931c00000500000093dc030017000000a3140000f4f80300831c
            0100b4f80300e338020007f00300839c0000c4f403008398020007000000
            039c000084f40300839c0000c4f80300b31c0000f7000000831c03000700
            000093140200070000001314020006000000efc003005fc80200839c0000
            c4f80300931c02001700000023980000f4f80300039c000084f40300839c
            0000c4f80300b31c0000f7000000831c030007000000e370020007e00300
            130000000000000083800000c1080000039000008108000013040000010c
            000067000200000000001304000001f40300239800001108000023900000
            8108000013100000010c000023b80000a4f0030023b00000b4f0030023a8
            0000c4f00300a31c000004f80300839c000084f4030023900000f4f80300
            839c0000c4f40300039c000084f4030023800200e7000000839c0000c4f4
            0300039c000044f4030023880200e7000000a31c000004f80300839c0000
            84f4030023900000f4f803006f0000008008000093140000000000000394
            000084f80300efc003005fa40200839c000084f80300931c020047000000
            23900000f4f80300831c0100f4f80300931c020017000000a31c0000f4f8
            0300031c0100f4f80300931c0000f0040000e3e80300e7f00300839c0000
            c4f40300839c020047000000131c00001000000063180200e70800006308
            020007180000131c00002000000063400200e7300000839c0000c4f40300
            839c020007000000931c02000720000093140000f0fc0300131402000700
            0000efc00300df6802006f000000c0280000839c0000c4f40300839c0200
            07000000131c020007200000b71c00000100000093140200f7fc03001314
            000007000000efc003005f740200839c0000c4f40300839c020007000000
            131c020047200000b71c00000100000093140200f7fc0300131400000700
            0000efc003009f6c02006f000000001c0000839c0000c4f40300839c0200
            07000000931c02000720000093140000f03c00001314020007000000efc0
            03005f780200839c0000c4f40300839c020007000000931c020047200000
            93140000f03c00001314020007000000efc00300df700200839c0000c4f4
            0300839c020007000000931c02008720000093140000f03c000013140200
            07000000efc003005f6c0200839c0000c4f40300839c020007000000931c
            0200c720000093140000f03c00001314020007000000efc00300df640200
            6f000000c000000073000000100000001300000000000000130000000000
            000083800000c1080000039000008108000013040000010c000067000200
            000000001304000001f8030023b800001100000023b00000810000001310
            00000108000023980000a4f8030023900000b4f80300839c0000c4f80300
            839c020047000000131c00001000000063180200e7080000633002000718
            0000131c00002000000063400200e7400000839c0000c4f80300839c0200
            07000000931c0200072800008394000084f803001314020007000000efc0
            03001f2802006f000000c0380000839c0000c4f80300839c020007000000
            931c020007280000039c000084f80300135c000007040000135c01000704
            000093140000070000001314020007000000efc003001f300200839c0000
            c4f80300839c020007000000131c020047280000839c000084f80300935c
            030007040000935c020007040000935c0300070400009314020007000000
            1314000007000000efc003009f2402006f000000c0240000839c0000c4f8
            0300839c020007000000931c020007280000039c000084f8030013dc0100
            f73c000093140000070000001314020007000000efc00300df2c0200839c
            0000c4f80300839c020007000000131c020047280000839c000084f80300
            935c03008700000093dc0300f73c00009314020007000000131400000700
            0000efc003009f240200839c0000c4f80300839c020007000000131c0200
            87280000839c000084f80300935c03000704000093dc0300f73c00009314
            0200070000001314000007000000efc003005f1c0200839c0000c4f80300
            839c020007000000131c0200c7280000839c000084f80300935c03008704
            000093dc0300f73c000093140200070000001314000007000000efc00300
            1f1402006f000000c0000000730000001000000013000000000000000394
            0000c4f80300ef00000080080000131c000005000000839c000084f80300
            63100200e70000007300000010000000130000000000000083800000c104
            000003900000810400001304000001080000670002000000000013040000
            01f403002398000011080000239000008108000013100000010c000023b8
            0000a4f003002398000004f80300839c0000c4f40300839c020047000000
            131c00001000000063180200e70800006300020007200000131c00002000
            000063500200e7480000839c0000c4f40300839c020007000000931c0200
            072800001314020007000000efc003008fd0030023980000a4f803006f00
            000040440000839c0000c4f40300839c020007000000931c020007280000
            1314020007000000efc003004fdc0300931c000005000000131c02000700
            0000839c0000c4f80300b39c0300e700000023980000f4f80300839c0000
            c4f40300839c020007000000931c0200472800001314020007000000efc0
            0300cfd00300931c000005000000935c020007040000131c020007000000
            839c0000c4f80300b39c0300e700000023980000f4f803006f000000c02c
            0000839c0000c4f40300839c020007000000931c02000728000013140200
            07000000efc00300cfc40300931c000005000000131c020007000000839c
            0000c4f80300b39c0300e700000023980000f4f80300839c0000c4f40300
            839c020007000000931c0200472800001314020007000000efc003004fbc
            0300931c000005000000935c020087000000131c020007000000839c0000
            c4f80300b39c0300e700000023980000f4f80300839c0000c4f40300839c
            020007000000931c0200872800001314020007000000efc003008fb00300
            931c000005000000935c020007040000131c020007000000839c0000c4f8
            0300b39c0300e700000023980000f4f80300839c0000c4f40300839c0200
            07000000931c0200c72800001314020007000000efc00300cfa40300931c
            000005000000935c020087040000131c020007000000839c0000c4f80300
            b39c0300e700000023980000f4f803006f000000c0000000730000001000
            00001300000000000000839c0000c4f80300131402000700000083800000
            c1080000039000008108000013040000010c000067000200000000001304
            000001f40300239800008108000013100000010c000023b80000a4f00300
            839c0000c4f40300f39c020047c0000023980000f4f80300130000000000
            000003900000c108000013040000010c0000670002000000000013040000
            01fc030023980000810000001310000001040000b79c010000000000039c
            020007080000b79c01000000000013dc0100d7fc030023800200e7080000
            130000000000000003900000c10000001304000001040000670002000000
            00001304000001fc03002398000011000000239000008100000013100000
            01040000efc003001ff00300130000000000000083800000c10000000390
            000081000000130400000104000067000200000000001304000001fc0300
            239800001100000023900000810000001310000001040000931c02008124
            0200839c020007000000131c020017000000931c02008124020023800200
            e7000000931c0200c1240200839c020007000000131c0300f7000000931c
            0200c124020023800200e7000000931c0200c1240200839c020007000000
            93140200070000001314020001380200efc003009f140300130000000000
            00000040163300401643000006c001010000000202b000000000000203b0
            03000000000006c021010000000202b000000000000203b0010000000200
            00d0000000f0
            <crc>
                9f66
            </crc>
        </region>
        <region name="INIT_STAGE_1_SNVM_CLIENT" address="0x0000ca" retrieveAddressFromFile="false" size="4368" format="HEX" type="PlainText NonAuthenticated" wordSize="8" numberWords="4368" memFile="designer\BaseDesign\BaseDesign_init_stage_1_snvm.mem" memType="Microsemi Binary 32-bit" memFileTimeStamp="" clientType="public" program="true">
            <write_protect/>
            <fabric_accessible/>
            <fabric_accessible_as_rom/>
            <mss_accessible/>
            <mss_accessible_as_rom/>
            000010c032000000000f11c0b80b0000ff3f0c1200000020000000000000
            000000000000000000000000000000000000000000000000000000000000
            000000000000000000000000000000000000000000000000000000000000
            000000000000000000000000000000000000000000000000000000000000
            000000000000000000000000000000000000000000000000000000000000
            000000000000000000000000000000000000000000000000000000000000
            000000000000000000000000000000000000000000000000000000000000
            000000000000000000000000000000000000000000000000000000000000
            000000000000000000000000000000000000000000000000000000000000
            000000000000000000000000000000000000000000000000000000000000
            000000000000000000000000000000000000000000000000000000000000
            000000000000000000000000000000000000000000000000000000000000
            000000000000000000000000000000000000000000000000000000000000
            000000000000000000000000000000000000000000000000000000000000
            000000000000000000000000000000000000000000000000000000000000
            000000000000000000000000000000000000000000000000000000000000
            000000000000000000000000000000000000000000000000000000000000
            000000000000000000000000000000000000000000000000000000000000
            000000000000000000000000000000000000000000000000000000000000
            000000000000000000000000000000000000000000000000000000000000
            000000000000000000000000000000000000000000000000000000000000
            000000000000000000000000000000000000000000000000000000000000
            000000000000000000000000000000000000000000000000000000000000
            000000000000000000000000000000000000000000000000000000000000
            000000000000000000000000000000000000000000000000000000000000
            000000000000000000000000000000000000000000000000000000000000
            000000000000000000000000000000000000000000000000000000000000
            000000000000000000000000000000000000000000000000000000000000
            000000000000000000000000000000000000000000000000000000000000
            000000000000000000000000000000000000000000000000000000000000
            000000000000000000000000000000000000000000000000000000000000
            000000000000000000000000000000000000000000000000000000000000
            000000000000000000000000000000000000000000000000000000000000
            000000000000000000000000000000000000000000000000000000000000
            000000000000000000000000000000000000000000000000000000000000
            000000000000000000000000000000000000000000000000000000000000
            000000000000000000000000000000000000000000000000000000000000
            000000000000000000000000000000000000000000000000000000000000
            000000000000000000000000000000000000000000000000000000000000
            000000000000000000000000000000000000000000000000000000000000
            000000000000000000000000000000000000000000000000000000000000
            000000000000000000000000000000000000000000000000000000000000
            000000000000000000000000000000000000000000000000000000000000
            000000000000000000000000000000000000000000000000000000000000
            000000000000000000000000000000000000000000000000000000000000
            000000000000000000000000000000000000000000000000000000000000
            000000000000000000000000000000000000000000000000000000000000
            000000000000000000000000000000000000000000000000000000000000
            000000000000000000000000000000000000000000000000000000000000
            000000000000000000000000000000000000000000000000000000000000
            000000000000000000000000000000000000000000000000000000000000
            000000000000000000000000000000000000000000000000000000000000
            000000000000000000000000000000000000000000000000000000000000
            000000000000000000000000000000000000000000000000000000000000
            000000000000000000000000000000000000000000000000000000000000
            000000000000000000000000000000000000000000000000000000000000
            000000000000000000000000000000000000000000000000000000000000
            000000000000000000000000000000000000000000000000000000000000
            000000000000000000000000000000000000000000000000000000000000
            000000000000000000000000000000000000000000000000000000000000
            000000000000000000000000000000000000000000000000000000000000
            000000000000000000000000000000000000000000000000000000000000
            000000000000000000000000000000000000000000000000000000000000
            000000000000000000000000000000000000000000000000000000000000
            000000000000000000000000000000000000000000000000000000000000
            000000000000000000000000000000000000000000000000000000000000
            000000000000000000000000000000000000000000000000000000000000
            000000000000000000000000000000000000000000000000000000000000
            000000000000000000000000000000000000000000000000000000000000
            000000000000000000000000000000000000000000000000000000000000
            000000000000000000000000000000000000000000000000000000000000
            000000000000000000000000000000000000000000000000000000000000
            000000000000000000000000000000000000000000000000000000000000
            000000000000000000000000000000000000000000000000000000000000
            000000000000000000000000000000000000000000000000000000000000
            000000000000000000000000000000000000000000000000000000000000
            000000000000000000000000000000000000000000000000000000000000
            000000000000000000000000000000000000000000000000000000000000
            000000000000000000000000000000000000000000000000000000000000
            000000000000000000000000000000000000000000000000000000000000
            000000000000000000000000000000000000000000000000000000000000
            000000000000000000000000000000000000000000000000000000000000
            000000000000000000000000000000000000000000000000000000000000
            000000000000000000000000000000000000000000000000000000000000
            000000000000000000000000000000000000000000000000000000000000
            000000000000000000000000000000000000000000000000000000000000
            000000000000000000000000000000000000000000000000000000000000
            000000000000000000000000000000000000000000000000000000000000
            000000000000000000000000000000000000000000000000000000000000
            000000000000000000000000000000000000000000000000000000000000
            000000000000000000000000000000000000000000000000000000000000
            000000000000000000000000000000000000000000000000000000000000
            000000000000000000000000000000000000000000000000000000000000
            000000000000000000000000000000000000000000000000000000000000
            000000000000000000000000000000000000000000000000000000000000
            000000000000000000000000000000000000000000000000000000000000
            000000000000000000000000000000000000000000000000000000000000
            000000000000000000000000000000000000000000000000000000000000
            000000000000000000000000000000000000000000000000000000000000
            000000000000000000000000000000000000000000000000000000000000
            000000000000000000000000000000000000000000000000000000000000
            000000000000000000000000000000000000000000000000000000000000
            000000000000000000000000000000000000000000000000000000000000
            000000000000000000000000000000000000000000000000000000000000
            000000000000000000000000000000000000000000000000000000000000
            000000000000000000000000000000000000000000000000000000000000
            000000000000000000000000000000000000000000000000000000000000
            000000000000000000000000000000000000000000000000000000000000
            000000000000000000000000000000000000000000000000000000000000
            000000000000000000000000000000000000000000000000000000000000
            000000000000000000000000000000000000000000000000000000000000
            000000000000000000000000000000000000000000000000000000000000
            000000000000000000000000000000000000000000000000000000000000
            000000000000000000000000000000000000000000000000000000000000
            000000000000000000000000000000000000000000000000000000000000
            000000000000000000000000000000000000000000000000000000000000
            000000000000000000000000000000000000000000000000000000000000
            000000000000000000000000000000000000000000000000000000000000
            000000000000000000000000000000000000000000000000000000000000
            000000000000000000000000000000000000000000000000000000000000
            000000000000000000000000000000000000000000000000000000000000
            000000000000000000000000000000000000000000000000000000000000
            000000000000000000000000000000000000000000000000000000000000
            000000000000000000000000000000000000000000000000000000000000
            000000000000000000000000000000000000000000000000000000000000
            000000000000000000000000000000000000000000000000000000000000
            000000000000000000000000000000000000000000000000000000000000
            000000000000000000000000000000000000000000000000000000000000
            000000000000000000000000000000000000000000000000000000000000
            000000000000000000000000000000000000000000000000000000000000
            000000000000000000000000000000000000000000000000000000000000
            000000000000000000000000000000000000000000000000000000000000
            000000000000000000000000000000000000000000000000000000000000
            000000000000000000000000000000000000000000000000000000000000
            000000000000000000000000000000000000000000000000000000000000
            000000000000000000000000000000000000000000000000000000000000
            000000000000000000000000000000000000000000000000000000000000
            00000000000000000000ff3f0c32ff3f0c42ff3f0c520100002000000000
            000000000000000000000000000000000000000000000000000000000000
            000000000000000000000000000000000000000000000000000000000000
            000000000000000000000000000000000000000000000000000000000000
            000000000000000000000000000000000000000000000000000000000000
            00000000ff3f0c62ff3f0c72000006c001000000000202b0000000000200
            06c004040404020200b048600003020006c000000700020200b04c610003
            020006c004040404020200b048a00003020006c000000700020200b04ca1
            0003000006c000000000030000e000000000
            <crc>
                c9bb
            </crc>
        </region>
    </nvm>
</Actel_Data_File>
