<Actel_Data_File>
    <format name="NVM File" version="01.00.00"/>
    <header>
        <die>
            MPFS095T
        </die>
        <family>
            PolarFireSoC
        </family>
        <module>
            snvm
        </module>
        <package>
            FCSG325
        </package>
        <version>
            2025.2.0.14
        </version>
    </header>
    <nvm>
        <region name="INIT_STAGE_2_3_SNVM_CLIENT" address="0x000000" retrieveAddressFromFile="false" size="24728" format="HEX" type="PlainText NonAuthenticated" wordSize="8" numberWords="24728" memFile="designer\BaseDesign\BaseDesign_init_stage_2_3_snvm.mem" memType="Microsemi Binary 32-bit" memFileTimeStamp="" clientType="public" program="true">
            <write_protect/>
            <fabric_accessible/>
            <fabric_accessible_as_rom/>
            <mss_accessible/>
            <mss_accessible_as_rom/>
            00008c12000000200d4d07000f4d0700114d0700134d0700154d0700174d
            0700194d07001b4d07001d4d07001f4d0700214d0700234d0700254d0700
            274d0700294d07002b4d07002d4d07002f4d0700314d0700334d0700354d
            0700374d0700394d07003b4d07003d4d07003f4d0700414d0700434d0700
            454d0700474d0700494d07004b4d07004d4d07004f4d0700514d0700534d
            0700554d0700574d0700594d07005b4d07005d4d07005f4d0700614d0700
            634d0700654d0700674d0700694d07006b4d07006d4d07006f4d0700714d
            0700734d0700754d0700774d0700794d07007b4d07007d4d07007f4d0700
            814d0700834d0700854d0700874d0700894d07008b4d07008d4d07008f4d
            0700914d0700934d0700954d0700974d0700994d07009b4d07009d4d0700
            9f4d0700a14d0700a34d0700a54d0700a74d0700a94d0700ab4d0700ad4d
            0700af4d0700b14d0700b34d0700b54d0700b74d0700b94d0700bb4d0700
            bd4d0700bf4d0700c14d0700c34d0700c54d0700c74d0700c94d0700cb4d
            0700cd4d0700cf4d0700d14d0700d34d0700d54d0700d74d0700d94d0700
            db4d0700dd4d0700df4d0700e14d0700e34d0700e54d0700e74d0700e94d
            0700eb4d0700ed4d0700ef4d0700f14d0700f34d0700f54d0700f74d0700
            f94d0700fb4d0700fd4d0700ff4d0700014e0700034e0700054e0700074e
            0700094e07000b4e07000d4e07000f4e0700114e0700134e0700154e0700
            174e0700194e07001b4e07001d4e07001f4e0700214e0700234e0700254e
            0700274e0700294e07002b4e07002d4e07002f4e0700314e0700334e0700
            354e0700374e0700394e07003b4e07003d4e07003f4e0700414e0700434e
            0700454e0700474e0700494e07004b4e07004d4e07004f4e0700514e0700
            534e0700554e0700574e0700594e07005b4e07005d4e07005f4e0700614e
            0700634e0700654e0700674e0700694e07006b4e07006d4e07006f4e0700
            714e0700734e0700754e0700774e0700794e07007b4e07007d4e07007f4e
            0700814e0700834e0700854e0700874e0700894e07008b4e07008d4e0700
            8f4e0700914e0700934e0700954e0700974e0700994e07009b4e07009d4e
            07009f4e0700a14e0700a34e0700a54e0700a74e0700a94e0700ab4e0700
            ad4e0700af4e0700b14e0700b34e0700b54e0700b74e0700b94e0700bb4e
            0700bd4e0700bf4e0700c14e0700c34e0700c54e0700c74e0700c94e0700
            cb4e0700cd4e0700cf4e0700d14e0700d34e0700d54e0700d74e0700d94e
            0700db4e0700dd4e0700df4e0700e14e0700e34e0700e54e0700e74e0700
            e94e0700eb4e0700ed4e0700ef4e0700f14e0700f34e0700f54e0700f74e
            0700f94e0700fb4e0700fd4e0700ff4e0700014f0700034f0700054f0700
            074f0700094f07000b4f07000d4f07000f4f0700114f0700134f0700154f
            0700174f0700194f07001b4f07001d4f07001f4f0700214f0700234f0700
            254f0700274f0700294f07002b4f07002d4f07002f4f0700314f0700334f
            0700354f0700374f0700394f07003b4f07003d4f07003f4f0700414f0700
            434f0700454f0700474f0700494f07004b4f07004d4f07004f4f0700514f
            0700534f0700554f0700574f0700594f07005b4f07005d4f07005f4f0700
            614f0700634f0700654f0700674f0700694f07006b4f07006d4f07006f4f
            0700714f0700734f0700754f0700774f0700794f07007b4f07007d4f0700
            7f4f0700814f0700834f0700854f0700874f0700894f07008b4f07008d4f
            07008f4f0700914f0700934f0700954f0700974f0700994f07009b4f0700
            9d4f07009f4f0700a14f0700a34f0700a54f0700a74f0700a94f0700ab4f
            0700ad4f0700af4f0700b14f0700b34f0700b54f0700b74f0700b94f0700
            bb4f0700bd4f0700bf4f0700c14f0700c34f0700c54f0700c74f0700c94f
            0700cb4f0700cd4f0700cf4f0700d14f0700d34f0700d54f0700d74f0700
            d94f0700db4f0700dd4f0700df4f0700e14f0700e34f0700e54f0700e74f
            0700e94f0700eb4f0700ed4f0700ef4f0700f14f0700f34f0700f54f0700
            f74f0700f94f0700fb4f0700fd4f0700ff4f070001500700035007000550
            070007500700095007000b5007000d5007000f5007001150070013500700
            1550070017500700195007001b5007001d5007001f500700215007002350
            07002550070027500700295007002b5007002d5007002f50070031500700
            335007003550070037500700395007003b5007003d5007003f5007004150
            0700435007004550070047500700495007004b5007004d5007004f500700
            51500700535007005550070057500700595007005b5007005d5007005f50
            070061500700635007006550070067500700695007006b5007006d500700
            6f50070071500700735007007550070077500700795007007b5007007d50
            07007f50070081500700835007008550070087500700895007008b500700
            8d5007008f50070091500700935007009550070097500700995007009b50
            07009d5007009f500700a1500700a3500700a5500700a7500700a9500700
            ab500700ad500700af500700b1500700b3500700b5500700b7500700b950
            0700bb500700bd500700bf500700c1500700c3500700c5500700c7500700
            c9500700cb500700cd500700cf500700d1500700d3500700d5500700d750
            0700d9500700db500700dd500700df500700e1500700e3500700e5500700
            e7500700e9500700eb500700ed500700ef500700f1500700f3500700f550
            0700f7500700f9500700fb500700fd500700ff5007000151070003510700
            0551070007510700095107000b5107000d5107000f510700115107001351
            07001551070017510700195107001b5107001d5107001f51070021510700
            235107002551070027510700295107002b5107002d5107002f5107003151
            0700335107003551070037510700395107003b5107003d5107003f510700
            41510700435107004551070047510700495107004b5107004d5107004f51
            070051510700535107005551070057510700595107005b5107005d510700
            5f51070061510700635107006551070067510700695107006b5107006d51
            07006f51070071510700735107007551070077510700795107007b510700
            7d5107007f51070081510700835107008551070087510700895107008b51
            07008d5107008f5107009151070093510700955107009751070099510700
            9b5107009d5107009f510700a1510700a3510700a5510700a7510700a951
            0700ab510700ad510700af510700b1510700b3510700b5510700b7510700
            b9510700bb510700bd510700bf510700c1510700c3510700c5510700c751
            0700c9510700cb510700cd510700cf510700d1510700d3510700d5510700
            d7510700d9510700db510700dd510700df510700e1510700e3510700e551
            0700e7510700e9510700eb510700ed510700ef510700f1510700f3510700
            f5510700f7510700f9510700fb510700fd510700ff510700015207000352
            07000552070007520700095207000b5207000d5207000f52070011520700
            135207001552070017520700195207001b5207001d5207001f5207002152
            0700235207002552070027520700295207002b5207002d5207002f520700
            31520700335207003552070037520700395207003b5207003d5207003f52
            070041520700435207004552070047520700495207004b5207004d520700
            4f52070051520700535207005552070057520700595207005b5207005d52
            07005f52070061520700635207006552070067520700695207006b520700
            6d5207006f52070071520700735207007552070077520700795207007b52
            07007d5207007f5207008152070083520700855207008752070089520700
            8b5207008d5207008f520700915207009352070095520700975207009952
            07009b5207009d5207009f520700a1520700a3520700a5520700a7520700
            a9520700ab520700ad520700af520700b1520700b3520700b5520700b752
            0700b9520700bb520700bd520700bf520700c1520700c3520700c5520700
            c7520700c9520700cb520700cd520700cf520700d1520700d3520700d552
            0700d7520700d9520700db520700dd520700df520700e1520700e3520700
            e5520700e7520700e9520700eb520700ed520700ef520700f1520700f352
            0700f5520700f7520700f9520700fb520700fd520700ff52070001530700
            035307000553070007530700095307000b5307000d5307000f5307001153
            0700135307001553070017530700195307001b5307001d5307001f530700
            21530700235307002553070027530700295307002b5307002d5307002f53
            070031530700335307003553070037530700395307003b5307003d530700
            3f53070041530700435307004553070047530700495307004b5307004d53
            07004f53070051530700535307005553070057530700595307005b530700
            5d5307005f53070061530700635307006553070067530700695307006b53
            07006d5307006f5307007153070073530700755307007753070079530700
            7b5307007d5307007f530700815307008353070085530700875307008953
            07008b5307008d5307008f53070091530700935307009553070097530700
            995307009b5307009d5307009f530700a1530700a3530700a5530700a753
            0700a9530700ab530700ad530700af530700b1530700b3530700b5530700
            b7530700b9530700bb530700bd530700bf530700c1530700c3530700c553
            0700c7530700c9530700cb530700cd530700cf530700d1530700d3530700
            d5530700d7530700d9530700db530700dd530700df530700e1530700e353
            0700e5530700e7530700e9530700eb530700ed530700ef530700f1530700
            f3530700f5530700f7530700f9530700fb530700fd530700ff5307000154
            0700035407000554070007540700095407000b5407000d5407000f540700
            11540700135407001554070017540700195407001b5407001d5407001f54
            070021540700235407002554070027540700295407002b5407002d540700
            2f54070031540700335407003554070037540700395407003b5407003d54
            07003f54070041540700435407004554070047540700495407004b540700
            4d5407004f54070051540700535407005554070057540700595407005b54
            07005d5407005f5407006154070063540700655407006754070069540700
            6b5407006d5407006f540700715407007354070075540700775407007954
            07007b5407007d5407007f54070081540700835407008554070087540700
            895407008b5407008d5407008f5407009154070093540700955407009754
            0700995407009b5407009d5407009f540700a1540700a3540700a5540700
            a7540700a9540700ab540700ad540700af540700b1540700b3540700b554
            0700b7540700b9540700bb540700bd540700bf540700c1540700c3540700
            c5540700c7540700c9540700cb540700cd540700cf540700d1540700d354
            0700d5540700d7540700d9540700db540700dd540700df540700e1540700
            e3540700e5540700e7540700e9540700eb540700ed540700ef540700f154
            0700f3540700f5540700f7540700f9540700fb540700fd540700ff540700
            01550700035507000555070007550700095507000b55070000008c320000
            8c4200001a12000000206f000000005001006f000000c020000000000000
            000000000000000000000000f98002000000000000000000000000000000
            000000000000000000000000000011880200000000000000000000000000
            000000000000000000000000000000002da8020000000000000000000000
            0000000000000000000000000000000000000000000000000000b5880200
            000000007d88020000000000000000000000000000000000000000000000
            000000000000000000000000000099a40200000000004198020000000000
            e1a802000000000029b0020000000000b1b002000000000079b002000000
            0000c5900200000000000d980200000000006d98020000000000f5980200
            0000000013000000000000001300000000000000130000000000000019c4
            0100060003000a0803000e10030012180300162003001a2803001e300300
            22380300264003002a4803002e50030032580300366003003a6803003e70
            030042780300c6000300ca080300ce100300d2180300d6200300da280300
            de300300e2380300e6400300ea480300ee500300f2580300f6600300fa68
            0300fe7003007394000020d00000f394000010d00000ef00000070380000
            31a4020019c40100060003000a0803000e10030012180300162003001a28
            03001e30030022380300264003002a4803002e5003003258030036600300
            3a6803003e70030042780300c6000300ca080300ce100300d2180300d620
            0300da280300de300300e2380300e6400300ea480300ee500300f2580300
            f6600300fa680300fe700300ef00000070080000d9b8020019c401000600
            03000a0803000e10030012180300162003001a2803001e30030022380300
            264003002a4803002e50030032580300366003003a6803003e7003004278
            0300c6000300ca080300ce100300d2180300d6200300da280300de300300
            e2380300e6400300ea480300ee500300f2580300f6600300fa680300fe70
            0300ef00000060b8010041b8020019c40100060003000a0803000e100300
            12180300162003001a2803001e30030022380300264003002a4803002e50
            030032580300366003003a6803003e70030042780300c6000300ca080300
            ce100300d2180300d6200300da280300de300300e2380300e6400300ea48
            0300ee500300f2580300f6600300fa680300fe700300ef400000c0c00000
            a998020019c40100060003000a0803000e10030012180300162003001a28
            03001e30030022380300264003002a4803002e5003003258030036600300
            3a6803003e70030042780300c6000300ca080300ce100300d2180300d620
            0300da280300de300300e2380300e6400300ea480300ee500300f2580300
            f6600300fa680300fe700300ef000000b04400001198020019c401000600
            03000a0803000e10030012180300162003001a2803001e30030022380300
            264003002a4803002e50030032580300366003003a6803003e7003004278
            0300c6000300ca080300ce100300d2180300d6200300da280300de300300
            e2380300e6400300ea480300ee500300f2580300f6600300fa680300fe70
            0300ef000000703000007db0020019c40100060003000a0803000e100300
            12180300162003001a2803001e30030022380300264003002a4803002e50
            030032580300366003003a6803003e70030042780300c6000300ca080300
            ce100300d2180300d6200300da280300de300300e2380300e6400300ea48
            0300ee500300f2580300f6600300fa680300fe700300ef000000b0280000
            a5b0020019c40100060003000a0803000e10030012180300162003001a28
            03001e30030022380300264003002a4803002e5003003258030036600300
            3a6803003e70030042780300c6000300ca080300ce100300d2180300d620
            0300da280300de300300e2380300e6400300ea480300ee500300f2580300
            f6600300fa680300fe700300ef000000301c00000db0020019c401000600
            03000a0803000e10030012180300162003001a2803001e30030022380300
            264003002a4803002e50030032580300366003003a6803003e7003004278
            0300c6000300ca080300ce100300d2180300d6200300da280300de300300
            e2380300e6400300ea480300ee500300f2580300f6600300fa680300fe70
            0300ef000000b00c0000f588020019c40100060003000a0803000e100300
            12180300162003001a2803001e30030022380300264003002a4803002e50
            030032580300366003003a6803003e70030042780300c6000300ca080300
            ce100300d2180300d6200300da280300de300300e2380300e6400300ea48
            0300ee500300f2580300f6600300fa680300fe700300ef00000030000000
            5d88020019c40100060003000a0803000e10030012180300162003001a28
            03001e30030022380300264003002a4803002e5003003258030036600300
            3a6803003e70030042780300c6000300ca080300ce100300d2180300d620
            0300da280300de300300e2380300e6400300ea480300ee500300f2580300
            f6600300fa680300fe700300ef000000a0f001008588020019c401000600
            03000a0803000e10030012180300162003001a2803001e30030022380300
            264003002a4803002e50030032580300366003003a6803003e7003004278
            0300c6000300ca080300ce100300d2180300d6200300da280300de300300
            e2380300e6400300ea480300ee500300f2580300f6600300fa680300fe70
            0300ef00000020e4010029a8020019c40100060003000a0803000e100300
            12180300162003001a2803001e30030022380300264003002a4803002e50
            030032580300366003003a6803003e70030042780300c6000300ca080300
            ce100300d2180300d6200300da280300de300300e2380300e6400300ea48
            0300ee500300f2580300f6600300fa680300fe700300ef00000080bc0100
            d1a0020019c40100060003000a0803000e10030012180300162003001a28
            03001e30030022380300264003002a4803002e5003003258030036600300
            3a6803003e70030042780300c6000300ca080300ce100300d2180300d620
            0300da280300de300300e2380300e6400300ea480300ee500300f2580300
            f6600300fa680300fe700300ef00000000c801007980020019c401000600
            03000a0803000e10030012180300162003001a2803001e30030022380300
            264003002a4803002e50030032580300366003003a6803003e7003004278
            0300c6000300ca080300ce100300d2180300d6200300da280300de300300
            e2380300e6400300ea480300ee500300f2580300f6600300fa680300fe70
            0300ef00000080b80100a180020019c40100060003000a0803000e100300
            12180300162003001a2803001e30030022380300264003002a4803002e50
            030032580300366003003a6803003e70030042780300c6000300ca080300
            ce100300d2180300d6200300da280300de300300e2380300e6400300ea48
            0300ee500300f2580300f6600300fa680300fe700300ef00000000ac0100
            098002008200010012040100a204010032080100c2080100520c0100e20c
            0100721001008250010012540100a254010032580100c2580100525c0100
            e25c0100726001008620010016240100a624010036280100c6280100562c
            0100e62c0100763001008670010016740100a674010036780100c6780100
            567c0100e67c0100098401007300000020c0000000000000000000007340
            010000c000007340010040c0000097000000000000009300020080ac0200
            b70803000008000093080200c2fc03002380020002000000f388000010c0
            000093c80300120000006350020002080000f388000050c0000093c80300
            32000000050c01006374020062000000f388000050c0000093c80300c2fc
            0300170c000000000000130c000063a00200635802006210000039800200
            970800000000000093080200829c02007340020052c00000179c00000000
            0000131c000087f00200979c000000000000931c020007f0020017a00000
            000000001320000088f0020063200000f700000063180200070400009700
            000000000000e7000200e01c000097840000000000009304020001e80000
            3180000013040200013801006f000000a04001000240020086080200931c
            0200013402001320020001380200630c02000704000025a00000931c0200
            011c0200132002000134020063280200070400002d800000931c02000138
            02001320020001380300630c02000704000031a00000131c020001040200
            931c02000104020013200200011c020063140000f7000000630c02000704
            00000d800000960002008200020063bc0100f8080000b3a00100f8000000
            93e003003800000063240100100c00002380020007000000911c0000e334
            030007fc03008200020063840100f8080000b3a00100f800000093e00300
            38000000632c01001004000083a00000070000002380020017040000911c
            0000111c0000e328030007fc030011800200018002008200020001440000
            2238030000400000f39c010004c0000023980000f4f80300010000007210
            010005840100820002000144000022380300004000002398000004f80300
            2390000004f803003714030000080000715400000804010023980000a4f8
            03003714030000080000615400000804010023900000a4f8030037140300
            000800007154000083a000000500000003940000c4f80300e3740200a8f0
            0300371403000008000071540000080401002a0c0200810c010013600000
            03000000811c01000394000084f80300aa180200011c0100b3940300d700
            000033980100e8000000ae1c0200322002003e140200c214020072100100
            0584010082000200414400002218030000200000999c0100984c0100999c
            0100756c0200984c03000100000032100100410400008200020039c40100
            06780300227003004a6803004e6003008000000023900000a4f003002398
            0000b4f00300851c010023980000f4f80300839c000084f0030003a00000
            c4f0030023800000f4f803002388000004fc0300931c0200011c02008118
            0100011c0100940c0300d80c0300931c0200811c0200940c0300d80c0300
            85800200b75c0100000800009c0c01003e0c0200810c01008398000004f8
            0300039c000044f80300b31c0200660001003e18020033d80200c6000000
            3320000077000100331c0000c80001003a20020023800000f4f803002388
            000004fc0300931c0200011c020003a00200470000009c0c010085140100
            01180100b3180200b70000003614020033d40000f5000000331c0000c800
            0000b31c0000e50000003e1c0200b61c02003a200200131c0200011c0200
            1c0c03002388000007040000b75c0100000800009c0c01003e3802008138
            0100839c000044f80300761c020063b00300e7000000839c000044f80300
            761c0200e3500200e7e00300839c000004f80300721c0200e3fc0300e7d8
            03006df40000aa1802002e1c0200931c0200011c02008c0c0100d00c0100
            b31c0200b60000003e14020033d40000d500000033200000c7000000331c
            0000050400003a200200131c0200811c02001c0c03002388000007040000
            931c0200011c0200940c0100d80c0100b61c0200d93c0200a11c0300b71c
            010000080000911c00007d5c0100980c0300931c0200811c020000001a32
            00001a420040141200000020523c010052e80000201001004f3801004580
            0000542401004d1401004f540100543400000a0000005348010041340100
            20500100454c010054e8000020180100412401004c3400000a0000000000
            0000534801004134010020500100454c010054e8000020400100414c0100
            533400000a0000000000000054a401006d9401003a8000000000000020d0
            0100698c01006bcc010020a00000000000000000000020d4010073a40000
            0d280000000000000004000002080000030c0000030c0000041000000410
            000004100000041000000514000005140000051400000514000005140000
            051400000514000005140000061800000618000006180000061800000618
            000006180000061800000618000006180000061800000618000006180000
            06180000061800000618000006180000071c0000071c0000071c0000071c
            0000071c0000071c0000071c0000071c0000071c0000071c0000071c0000
            071c0000071c0000071c0000071c0000071c0000071c0000071c0000071c
            0000071c0000071c0000071c0000071c0000071c0000071c0000071c0000
            071c0000071c0000071c0000071c0000071c0000071c0000082000000820
            000008200000082000000820000008200000082000000820000008200000
            082000000820000008200000082000000820000008200000082000000820
            000008200000082000000820000008200000082000000820000008200000
            082000000820000008200000082000000820000008200000082000000820
            000008200000082000000820000008200000082000000820000008200000
            082000000820000008200000082000000820000008200000082000000820
            000008200000082000000820000008200000082000000820000008200000
            082000000820000008200000082000000820000008200000082000000820
            000008200000082000000000000000000000000000000000000070840000
            000002000000000000000000000000000000000000000000000000000000
            000000000000000000000000000000000000000000000000000000000000
            000000000000000000000000000000000000000000000000000000000000
            000000000000000000000000000000000000000000000000000000000000
            000000000000000000000000000000000000000000000000000000000000
            000000000000000000000000000000000000000000000000000000000000
            000000000000000000000000000000000000000000000000000000000000
            000000000000000000000000000000000000000000000000000000000000
            000000000000000000000000000000000000000000000000000000000000
            000000000000000000000000000000000000000000000000000000000000
            000000000000000000000000000000000000000000000000000000000000
            000000000000000000000000000000000000000000000000000000000000
            000000000000000000000000000000000000000000000000000000000000
            000000000000000000000000000000000000000000000000000000000000
            000000000000000000000000000000000000000000000000000000000000
            000000000000000000000000000000000000000000000000000000000000
            000000000000000000000000000000000000000000000000000000000000
            000000000000000000000000000000000000000000000000000000000000
            000000000000000000000000000000000000000000000000000000000000
            000000000000000000000000000000000000000000000000000000000000
            000000000000000000000000000000000000000000000000000000000000
            000000000000000000000000000000000000000000000000000000000000
            000000000000000000000000000000000000000000000000000000000000
            000000000000000000000000000000000000000000000000000000000000
            000000000000000000000000000000000000000000000000000000000000
            000000000000000000000000000000000000000000000000000000000000
            000000000000000000000000000000000000000000000000000000000000
            000000000000000000000000000000000000000000000000000000000000
            000000000000000000000000000000000000000000000000000000000000
            000000000000000000000000000000000000000000000000000000000000
            000000000000000000000000000000000000000000000000000000000000
            000000000000000000000000000000000000000000000000000000000000
            000000000000000000000000000000000000000000000000000000000000
            000000000000000000000000000000000000000000000000000000000000
            000000000000000000000000000000000000000000000000000000000000
            000000000000000000000000000000000000000000000000000000000000
            000000000000000000000000000000000000000000000000000000000000
            000000000000000000000000000000000000000000000000000000000000
            000000000000000000000000000000000000000000000000000000000000
            000000000000000000000000000000000000000000000000000000000000
            000000000000000000000000000000000000000000000000000000000000
            000000000000000000000000000000000000000000000000000000000000
            000000000000000000000000000000000000000000000000000000000000
            000000000000000000000000000000000000000000000000000000000000
            000000000000000000000000000000000000000000000000000000000000
            000000000000000000000000000000000000000000000000000000000000
            000000000000000000000000000000000000000000000000000000000000
            000000000000000000000000000000000000000000000000000000000000
            000000000000000000000000000000000000000000000000000000000000
            000000000000000000000000000000000000000000000000000000000000
            000000000000000000000000000000000000000000000000000000000000
            000000000000000000000000000000000000000000000000000000000000
            000000000000000000000000000000000000000000000000000000000000
            000000000000000000000000000000000000000000000000000000000000
            000000000000000000000000000000000000000000000000000000000000
            000000000000000000000000000000000000000000000000000000000000
            000000000000000000000000000000000000000000000000000000000000
            000000000000000000000000000000000000000000000000000000000000
            000000000000000000000000000000000000000000000000000000000000
            000000000000000000000000000000000000000000000000000000000000
            000000000000000000000000000000000000000000000000000000000000
            000000000000000000000000000000000000000000000000000000000000
            000000000000000000000000000000000000000000000000000000000000
            000000000000000000000000000000000000000000000000000000000000
            000000000000000000000000000000000000000000000000000000000000
            000000000000000000000000000000000000000000000000000000000000
            000000000000000000000000000000000000000000000000000000000000
            000000000000000000000000000000000000000000000000000000000000
            000000000000000000000000000000000000000000000000000000000000
            000000000000000000000000000000000000000000000000000000000000
            000000000000000000000000000000000000000000000000000000000000
            000000000000000000000000000000000000000000000000000000000000
            000000000000000000000000000000000000000000000000000000000000
            000000000000000000000000000000000000000000000000000000000000
            000000000000000000000000000000000000000000000000000000000000
            000000000000000000000000000000000000000000000000000000000000
            000000000000000000000000000000000000000000000000000000000000
            000000000000000000000000000000000000000000000000000000000000
            000000000000000000000000000000000000000000000000000000000000
            000000000000000000000000000000000000000000000000000000000000
            000000000000000000000000000000000000000000000000000000000000
            000000000000000000000000000000000000000000000000000000000000
            000000000000000000000000000000000000000000000000000000000000
            000000000000000000000000000000000000000000000000000000000000
            000000000000000000000000000000000000000000000000000000000000
            000000000000000000000000000000000000000000000000000000000000
            000000000000000000000000000000000000000000000000000000000000
            000000000000000000000000000000000000000000000000000000000000
            000000000000000000000000000000000000000000000000000000000000
            000000000000000000000000000000000000000000000000000000000000
            000000000000000000000000000000000000000000000000000000000000
            000000000000000000000000000000000000000000000000000000000000
            000000000000000000000000000000000000000000000000000000000000
            000000000000000000000000000000000000000000000000000000000000
            000000000000000000000000000000000000000000000000000000000000
            000000000000000000000000000000000000000000000000000000000000
            000000000000000000000000000000000000000000000000000000000000
            000000000000000000000000000000000000000000000000000000000000
            000000000000000000000000000000000000000000000000000000000000
            000000000000000000000000000000000000000000000000000000000000
            000000000000000000000000000000000000000000000000000000000000
            000000000000000000000000000000000000000000000000000000000000
            000000000000000000000000000000000000000000000000000000000000
            000000000000000000000000000000000000000000000000000000000000
            000000000000000000000000000000000000000000000000000000000000
            000000000000000000000000000000000000000000000000000000000000
            000000000000000000000000000000000000000000000000000000000000
            000000000000000000000000000000000000000000000000000000000000
            000000000000000000000000000000000000000000000000000000000000
            000000000000000000000000000000000000000000000000000000000000
            000000000000000000000000000000000000000000000000000000000000
            000000000000000000000000000000000000000000000000000000000000
            000000000000000000000000000000000000000000000000000000000040
            143200401442004094120000002006580300225003000060000023b80000
            a4f0030023b00000b4f00300839c0000c4f40300918c030002400200839c
            000084f40300918c030002400200839c0000c4f40300b13c0300839c0000
            84f40300b92c03002398000004f8030081800200839c0000c4f403009c0c
            0100c11c00003e14020055cc0000aa1c0200852c0200a3140000f4f80300
            831c0100b4f80300e55c0300839c0000c4f40300940c0100039c000084f4
            0300839c0000c4f80300ba5c0200831c030007000000be14020036140200
            9dec0000839c0000c4f80300851c000023980000f4f80300039c000084f4
            0300839c0000c4f80300ba5c0200831c030007000000d5ec030001000000
            b240010022500100458401008200020079c40100225803000060000023b8
            0000a4f00300839c0000c4f40300f39c020047c0000023980000f4f80300
            01000000325001004584010082000200414400002218030000200000999c
            0100984c0100999c0100756c0200984c0300010000003210010041040000
            820002000144000006380300223003000040000023980000a4f803008394
            0000c4f80300131402004124020035dc000001000000f200010062100100
            058401008200020079c40100065803002250030000600000aa1c0200a33c
            0000f4f00300831c0100f4f4030023180000f4f80300a318000004f80300
            931c0000c4f80300be1402001314020041240200f5f4000001000000b240
            010022500100458401008200020039c40100067803002270030080000000
            23900000a4f0030023980000b4f003002398000004f80300839c000084f0
            0300039c0000c4f00300d93c0200a59c030013140000000c000075dc0000
            69a00200839c000084f0030003a00000c4f0030029180100811801003e14
            0200c2140200ef000000b0800000aa1c02002e20020093dc0300f73c0000
            931c0200070c000093d80300f73c0000839c0000c4f80300131c02001700
            000023980000e4f80300135c020086040000611c02009318000004fc0300
            b65c020023080200e7f80300839c000084f0030003a00000c4f003002918
            0100811801003e140200c21402000db40000aa1c02002e20020023900000
            f4f003002398000004f40300839c000084f00300039c0000c4f00300d93c
            02008d1c0300039c0000c4f80300dd1c0100e3e00300e7e0030039a00200
            839c0000c4f80300fd5c000023980000f4f80300839c0000c4f80300131c
            000004fc0300ba5c0200831c020047f803003e14020021fc0000839c0000
            c4f80300e5cc0300f2400100625001002184010082000200414400002218
            030000200000b71c000000d40100931c020007280000980c0100b71c0000
            00d40100931c020007280000139c0100f7000000980c0300010000003210
            01004104000082000200414400002218030000200000b71c000000d40100
            931c020007280000980c0100b71c000000d40100931c020007280000416c
            0200980c0300010000003210010041040000820002000144000022380300
            0040000023980000a4f80300b71c000000d40100931c020007280000940c
            0100b71c000000d40100931c020007280000039c0000c4f80300553c0200
            980c0300b71c000000d40100931c020007280000940c0100839c0000c4f8
            0300131c0300f7fc0300b71c000000d40100931c020007280000753c0200
            980c03000100000072100100058401008200020041440000221803000020
            0000b71c000000c00100911c0000051c0100980c0300b71c000000c00100
            a11c0000051c0100980c0300b79c000000c00100191c0100980c0300b71c
            000000d40100931c020007200000311c0100980c03000100000032100100
            4104000082000200414400002218030000200000931c02000128020003a0
            0200470000009c0c01008514010001180100b3180200b700000036140200
            33d40000f5000000331c0000c8000000b31c0000e50000003e1c0200b61c
            02003a200200131c0200012802001c0c0300238800000704000001000000
            32100100410400008200020041440000061803002210030000200000c1cc
            000001000000b20001002210010041040000820002000144000022380300
            00400000739400001020030023980000a4f8030073940000100003002390
            0000a4f80300739400001020030023880000a4f8030083a00000c4f80300
            0394000044f80300e3400200a8f803000394000044f803002a0c0200810c
            01001360000003000000811c01000394000084f80300aa180200011c0100
            b3940300d700000033980100e8000000ae1c0200322002003e140200c214
            020072100100058401008200020039c40100067803002270030080000000
            23900000a4f0030023980000b4f0030081180100011c010023900000d4f8
            030023980000e4f8030083980000c4f00300375c03009aec0000131c0000
            07800200b3180200e6080000039c000084f0030001180100331c0000c708
            000033180200e60000008398000084f00300375c03009aec0000131c0000
            07800200b3140200e608000033e00200e6080000ae1c0200331c00000604
            00003a20020037d80300fa0800001318000006200000811801003e140200
            c214020031840000aa1c02002e20020023900000f4f803002398000004fc
            0300839c000084f8030003a00000c4f803001318000080f8000081180100
            3e140200c2140200f5980000aa1c02002e20020023800000f4f803002388
            000004fc0300839c000084f8030003a00000c4f803001318000080f80000
            811801003e140200c2140200ef00000040d80100aa1c02002e20020023b0
            0000f4f0030023b8000004f403000394000004f803008394000044f80300
            29cc000013140000e0080000d1e40000839c000084f4030003a00000c4f4
            03001318000040180000811801003e140200c214020069b80000aa1c0200
            2e20020029180100811801003e140200c2140200ef00000040c80100aa1c
            02002e20020093dc0300f73c0000931c0200070c000093dc0300f73c0000
            e21c0000e11c02003e14020061e40000839c000084f4030003a00000c4f4
            030029180100811801003e140200c214020085980000aa1c02002e200200
            29180100811801003e140200c2140200ef000000a0b80100aa1c02002e20
            020093dc0300f73c0000931c0200070c000093dc0300f73c0000e21c0000
            e11c02003e140200b9e40000839c000084f4030003a00000c4f403002918
            0100811801003e140200c21402007db40000aa1c02002e20020093dc0300
            f73c0000931c0200070c000093dc0300f73c0000e21c0000e11c02003e14
            020015e4000001000000f240010062500100218401008200020001440000
            063803002230030000400000b71c000020c00100911c00009c0c01002398
            0000f4f80300039c0000c4f80300851c0100637c0000f7280000b71c0000
            00d40100931c0200072400009c0c0100912c0200c58c0300931c02000128
            020003a00200470000009c0c010023800000f4f803002388000004fc0300
            931c0200812802008c0c0100d00c0100839c000004f8030003a0000044f8
            0300b3180200b70001003614020033d40200a7000000331c0000c8000100
            b31c0000a70001003e1c0200b61c02003a200200421c020001ac0300421c
            020039bc03003e1c0200931c0000100c000063ec0300e7100000131c0200
            81280200839c000004f8030003a0000044f803001c0c0300238800000704
            0000175400000000000013140000459402009df800001754000000000000
            1314000025980200b5d800001314000000080000e1c4000061ec0000aa1c
            02002e200200131c0200812c02001c0c03002388000007040000931c0200
            012c0200051c010023000200e7000000931c0200112c0200230002000700
            0000411401004dc40000b71c000000d40100931c020007200000111c0100
            980c0300b9a00200039c0000c4f80300891c0100636c0000f7100000931c
            0200012c0200831c03000700000093dc0300f73c0000952c0300b1cc0000
            aa1c02002e200200131c0200013002001c0c03002388000007040000b71c
            000000d40100931c020007240000980c0100931c020081300200980c0300
            931c0200012c02002300020007000000931c0200112c0200051c01002300
            0200e7000000131400000008000091c40000b71c000000d40100931c0200
            07200000211c0100980c0300839c0000c4f80300991c0300b71c000020c0
            0100911c0000039c0000c4f80300980c0300811c01003e140200f2000100
            62100100058401008200020079c401000658030022500300006000008518
            010069180100b714000000c401001314020041240200efc003006ffc0300
            1754000000000000131400000568020059f0000017540000000000001314
            0000a56c020071d00000b71c000000d40100931c02000728000023800200
            0700000075f8000025c40000efc003002fc40300859c0100131402000700
            02002df00000319401001314000005d4000081140100efc00300af240200
            931c0200012c0200831c03000700000093dc0300f73c0000ad0c030061c4
            000023800000a4f8030023880000b4f80300931c0200812c02008c0c0100
            d00c0100839c000004f8030003a0000044f80300b3180200b70001003614
            020033d40200a7000000331c0000c8000100b31c0000a70001003e1c0200
            b61c02003a200200421c020009ac0300421c0200059c03003e1c0200859c
            0100931c020087e0000063fc0300e7000000931c0200012c020023000200
            0700000017540000000000001314000045500200fde8000011f800001314
            000000080000a1f80000931c0200112c0200831c03000700000093dc0300
            f73c00006338020007300000931c0200112c02002300020007000000811c
            01000120010023900000f4f803002398000004fc0300931c020001300200
            03a00200470000009c0c0100131c0200812c0200140c0100580c0100ba14
            02004218020063bc0100b6080000ba1402004218020063540200c5000000
            361c020063a00300e7080000931c020001300200940c0100d80c0100931c
            0200812c02008c0c0100d00c0100b31c0200b60001003e14020033d40200
            a600000033200000c7000100331c0000a80001003a20020023900000f4f8
            03002398000004fc0300931c0200813002009c0c010093dc030007100000
            b3dc0000f0000000a33c0000f4f00300831c0100f4f40300892c03001754
            00000000000013140000a52c0200efc00300df54020085f0000001a00200
            175400000000000013140000e52c0200efc00300df50020059d000001754
            0000000000001314000045300200efc00300ff4c02000394000084f80300
            83940000c4f80300efc003003f600200175400000000000013140000452c
            0200efc003007f4802000394000084f8030083940000c4f8030055d80000
            175400000000000013140000a5280200efc003001f440200730000005040
            00005dd40200b61c0200b22002002a0c02002e2002006374020006500000
            63e40300c5280000419c010063b80100e6680000b71c000000040000638c
            0100f6d000009358010086040000e11c0100175c000000000000131c0000
            c71c0200365c0200031c010007000000ba5c0200131c0000000800001d3c
            0200192c030033600200e5000000b35c0100f5000000b3600000e6000000
            0040943200409442000094120000002003a00200470000009c0c0100371c
            0100000800001c0c0300931c0200811c020003a00200470000009c0c0100
            136401000800000081240100b71c010000080000911c00004a1c0200980c
            0300931c000000200000f39c020047c0000023b80000f4f003002dd40000
            2398000004f80300839c0000c4f803003e140200f2400100625001005264
            0100c2640100218401008200020079c4010006580300225003004a480300
            4e40030000600000931c000000200000f3dc020047c0000023980000f4f8
            030001f4000023800000a4f8030023880000b4f8030099800200931c0200
            811c020003a00200470000009c0c0100131c0200011c02000c0c0100500c
            0100b3180200b70000003614020033d40000f5000000331c0000c8000000
            b31c0000e50000003e1c0200b61c02003a200200131c0200811c02001c0c
            03002388000007040000931c0200012002009c0c0100131c020017000000
            931c020001200200980c0300839c000004f8030003a0000044f803009514
            010001180100b3180200b70000003614020033d40000f5000000331c0000
            c8000000b31c0000e50000003e1c0200931c0200811c020003a002004700
            00009c0c0100ba14020042180200e39c0100b6e00300ba14020042180200
            63540200c5000000361c0200e3800300e7e00300b71c010000080000911c
            00007d5c0100980c0300931c0200811c020003a00200470000009c0c0100
            371c0100000800001c0c0300931c0200811c020003a00200470000009c0c
            0100136401000800000081240100b71c010000080000911c00004a1c0200
            980c0300ef000000b05c0000931c000000200000f39c020047c0000023b8
            0000f4f0030001000000b240010022500100126401008264010045840100
            8200020041440000061803002210030000200000ef0000003064000069cc
            000001000000b200010022100100410400008200020039c4010006780300
            2270030080000000aa1c0200a31c0000f4f00300f39c000040c403002398
            0000f4f80300839c0000c4f8030023800000f4f803002388000004f80300
            031c0100f4f00300fd1c010063cc0300e700000002400200031c0100f4f0
            0300bd1c0100638c0300e700000002400200831c0100f4f00300c15c0000
            a33c0000f4f00300831c0100f4f40300175c000000000000131c0000c760
            01008a1c0000ba5c02009c0c0100825c020001000000f240010062500100
            21840100820002001dc4010086380300a23003008040000023980000a4e8
            030023900000b4e80300039c0000c4e80300ba1c020001200100371c0000
            000002007d3c020023900000e4f8030093dc01000800000023980000f4f8
            0300839c000084f80300039c0000c4f80300d93c0200ad3c0300039c0000
            c4e80300b71c000000000200931c030007fc0300f93c0200850c0300039c
            0000c4e80300b71c000000000200931c030007f80300f93c020081ac0300
            839c0000c4e8030093dc0300f73c00003e1402003dfc00007d800200039c
            0000c4e80300b71c000000000200931c0300f7fc03007d3c0200ad1c0100
            63540000f7000000ef00000010a0000051a00200039c0000c4e80300b71c
            000000000200931c0300f7fc03007d3c02008d1c010063500000f7000000
            d5f40000b5a00200039c0000c4e80300b71c000000000200931c0300f7fc
            03007d3c02009d1c010063540000f7180000cdcc000095800200f39c0000
            40d0000023880000f4f80300839c000044f8030023800000f4f80300f39c
            000030d0000023b80000f4f00300839c0000c4f4030023b00000f4f00300
            f39c000050c0000023a80000f4f00300839c000044f4030023a00000f4f0
            0300f39c000000d0000023980000f4f00300839c0000c4f0030023900000
            f4f00300f39c000000c0000023880000f4f00300839c000044f003002380
            0000f4f00300f39c000010d0000023b80000f4e80300839c0000c4ec0300
            23b00000f4e803000240020001000000f600010066100100258401008200
            020041440000061803002210030000200000ef00000090c8000001000000
            b20001002210010041040000820002004144000022180300002000000100
            000032100100410400008200020041440000221803000020000001000000
            321001004104000082000200414400002218030000200000010000003210
            010041040000820002004144000022180300002000000100000032100100
            410400008200020041440000221803000020000001000000321001004104
            000082000200414400002218030000200000010000003210010041040000
            820002004144000022180300002000000100000032100100410400008200
            020041440000221803000020000001000000321001004104000082000200
            414400002218030000200000010000003210010041040000820002004144
            000022180300002000000100000032100100410400008200020041440000
            061803002210030000200000291401000588000041440000221803000020
            000001000000321001004104000082000200414400002218030000200000
            010000003210010041040000820002004144000022180300002000000100
            000032100100410400008200020001440000063803002230030000400000
            23980000a4f80300931c0200c12002009c0c010081bc0300851801006918
            0100b714000000c40100131402004120020089900000931c0200c1200200
            051c0100980c0300931c0000c4f8030005180100be140200131402004120
            020041980000839c0000c4f803003e140200f20001006210010005840100
            8200020079c4010006580300225003000060000023b80000a4f0030023b0
            0000b4f003000918010097540000000000009314020085d8000003940000
            c4f40300ef400000c0b40000a11c010023980000f4f803009da00200839c
            0000c4f80300fd5c000023900000f4f80300839c000084f803008a1c0000
            3d1c0100335c0000f7000000839c000084f403007d3c0200839c000084f8
            03008a1c0000b35c0100f7000000a30c0000f4f80300031c010074f80300
            a51c010063ac0300e7000000831c010074f80300931c02008710000093dc
            0300f73c0000e21c0000e11c020009a00200831c010074f80300931c0200
            b714000093dc0300f73c0000e21c0000e11c0200230c0000f4f80300931c
            000064f8030005180100be14020003940000c4f40300ef400000a0980000
            839c0000c4f80300fd5c000023980000f4f80300839c0000c4f80300c1dc
            030001000000b240010022500100458401008200020079c4010006580300
            225003000060000023b80000a4f00300975c000000000000931c020047b0
            000023980000f4f8030003940000c4f80300ef400000e0840000aa1c0200
            3e18020083940000c4f8030009140100ef40000020880000839c0000c4f4
            0300be1402000914010031fc00000180020079c401000658030022500300
            0060000023b80000a4f0030023b00000b4f0030023a80000c4f00300839c
            000084f4030023900000f4f803002398000004f8030039a00200839c0000
            c4f80300039c000084f80300ba5c0200831c0200070000003e14020045d4
            0000839c0000c4f80300851c000023980000f4f80300839c000044f40300
            131c0200f7fc030023a80000e4f00300e1fc0300931c0200012402002380
            020007000000839c0000c4f803003e140200b24001002250010045840100
            82000200014400002238030000400000f39c010004c0000023980000f4f8
            030001000000721001000584010082000200414400000618030022100300
            00200000cddc000001000000b20001002210010041040000820002000c04
            03008200020008040100820002003638020033780000be00000033f80100
            ce000000038c000005000000b20c0200930c0300f3fc030033cc01007300
            0000338c0100c30400002380000065000000820002000804010071340200
            33540100b50000008200020023400000b500000082000200035400000500
            0000820002003638020033780000be00000033f80100ce000000034c0000
            05000000b20c0200930c0300f3fc030033cc010073000000338c0100c304
            000023400000650000008200020003540000050000007134020033540100
            b50000008200020023000000b50000008200020003140000050000008200
            02003638020033780000be00000033f80100ce000000030c000005000000
            b20c0200930c0300f3fc030033cc010073000000338c0100c30400002300
            0000650000008200020003140000050000007134020033540100b5000000
            8200020079c4010006580300225003000060000023b80000a4f0030023b0
            0000b4f00300b21c0200361c0200236c0000f4f00300ba1c0200a3280000
            f4f00300839c0000c4f40300918c030002400200031c010054f403009d1c
            010063cc0300e700000002400200035c010064f40300899c0100638c0100
            f700000002400200839c0000c4f403006310020007400000031c010054f4
            03009d1c010063bc0300e7380000035c010064f40300899c010063e80100
            f7380000839c000084f40300131c020087000000835c010064f4030093dc
            0300f73c0000be1402003a140200a1fc0000839c000084f4030093180200
            c7000000031c010054f40300835c010064f40300951c020093dc030087fc
            0100d93c0200be140200361402002dfc0000839c0000c4f40300039c0000
            84f40300980c0300839c0000c4f403009c0c0100a11c00003e1402002ddc
            0000aa1c020023580000f4f80300839c0000c4f403009c0c0100b11c0000
            3e14020021fc0000aa1c0200a3140000f4f80300831c0100b4f80300e16c
            020023140000f4f80300831c0100a4f80300c21c0000c10c0200961c0000
            135c020007040000410c0200835c0100c4f80300d93c020023580000f4f8
            0300831c0100b4f803009d2c0200a3140000f4f80300035c0100c4f80300
            835c010064f40300630c0000f700000002400200031c0100b4f80300831c
            010054f40300630c0000f700000002400200839c0000c4f403009c0c0100
            c11c00003e14020075f40000aa1c0200892c0200a31c0000f4f803000d80
            0200839c0000c4f403009c0c0100911c00003e1402005dd40000839c0000
            c4f403009c0c0100c11c00003e14020069f40000aa1c0200892c0200a31c
            0000f4f80300831c0100f4f80300f1fc0300839c0000c4f4030023080200
            0700000001000000b240010022500100458401008200020079c401000658
            0300225003000060000023b80000a4f0030023b00000b4f0030023a80000
            c4f00300839c0000c4f40300918c030002400200839c000084f40300918c
            030002400200839c000044f40300918c030002400200839c0000c4f40300
            b93c0300839c000084f40300a13c0300839c000044f40300a92c03002398
            000004f8030081800200839c0000c4f403009c0c0100c11c00003e140200
            2dd40000aa1c0200852c0200a3140000f4f80300831c0100b4f80300e55c
            0300839c0000c4f40300940c0100039c000084f40300839c0000c4f80300
            ba5c0200831c030007000000be14020036140200f5ec0000839c0000c4f8
            0300851c000023980000f4f80300039c0000c4f80300839c000044f40300
            e3b40100f7e8030001000000b240010022500100458401008200020079c4
            01000000943200009442000092120000002033a0030007040000334c0000
            e5000000135803000804000033540100c80800009358020008040000c108
            0200935c01000304000033dc0100c8080000b3140200a6080000421c0000
            33a00100f700000063e80100b800000046600200931c0000f5fc03006390
            010018040000639c0100b8c000003e14020033200000b8000100335c0100
            c8080000420c0000134c01000304000033e00100c8080000b3180200e608
            00004220000033a001006800000063ec0100d800000046600200931c0000
            f7fc03006394010018040000795c0000638c0100d80000003e1c02004214
            000059340200811401008200020001980300051c0100b3600100c7080000
            419c010063a80300e8380000b71c00000004000063b00300f8a000009358
            030088040000e11c0100171c000000000000131c000067f00100365c0200
            8318010007000000be580200931c000000080000953c0200e5ac03009378
            020008040000331c020015040100137c030008040000937803000e040000
            85140100935c01000304000033540100e70c000033dc0100e70c0000b318
            0000d50c0000421c0000d93c020063e80300d7000000c65c0200131c0000
            f5fc0300639003001704000063980300d79800003a140200953c0200335c
            0300e70c0000420c0000134c010003040000b3dc0300e70c0000b3380000
            d70c0000c21c0000b39c03006700000063ec0300d7040000c65c02009318
            0000f7fc03006394030017040000795c0000638c0300d7040000361c0200
            42140000593402008200020063880300d5100000c19c010063880300f610
            0000b71c00000004000063900300f6780000135c03008604000061200100
            971c000000000000931c020067c80100ba5c0200031c0300070000001338
            000000080000425c020033380000ee000100636800000e30000063b40300
            b670000033d40000c5000000131401001500000081140100820002008114
            01000114010082000200931c0000f03c000063cc0300d7700000135c0300
            8600000021200100c1dc0200131c0000f03c0000c6180200e3f0010017c4
            03009358030088000000a11c010039dc0200131c0000f03c0000b2180200
            e3e00100c79003009358010086000000a11c010099d40200b3600200f800
            000033580300d5000000137c03000804000033780100e60c0000335c0200
            f5000000b3580100d5000000553c02009378020008040000937803000e04
            0000334c0000f50000009354010007040000b3d80100e60c0000b31c0200
            ce0c0000c2180000cd38020063ec0300f6000000c658020013180000fefc
            030063900300165c000063c80300f658000079780000c65802009d380200
            33580300e60c0000935c000007040000c10c0200b3d80300e60c00003314
            0200ce080000135c0200060400005d3c020063ec0100a7000000465c0200
            931c0000f6fc030063a00100174c000063d80100a748000079580000465c
            0200935400000e040000093c0200d134020045d40200b35c0100e6000000
            b3580200c6040000dd380200334c0300e5000000137c030006040000b35c
            0100e30c00009378020006040000937803000e04000033600200c5040000
            335c0100e500000033a0010007040000936001000804000033580000c604
            000033cc0100e30c0000b3140200fe080000420c0000b3a0010013040000
            63ec0300b8000000b6600200131c0200f7fc030063a80300d830000063e0
            0300b8300000f95c0000b6600200b3200200b8000100335c0300e80c0000
            422000001360010008040000b3e00300e80c0000330c0200ee080000c220
            0000b39403000804000063ec030065000000b654020013200000f7fc0300
            63b40300d520000063ec030065200000795c0000b6540200c21c000041bc
            0100d93c0200131c0000fffc0300b3d80300e70000009360030007040000
            713c020041080200b3380200e6080000b314020065000100b3180200c608
            0000136003000e040000331c0200e8080000ba580200c258020033180200
            c808000063cc0300e60000007a5802009360030006040000465802006388
            0300c508000063140200c50000003e1402008114010082000200419c0100
            7d5c0000f9380200c2180000b3f80300ee00000033540000c5040000f658
            0200e3d00100d5f8030013140200f7fc03008114010082000200135c0300
            060400004120010031f402009358010006040000c11c01007de402009358
            030008040000c11c0100b5cc0200811401000514010082000200361c0200
            0120010001d40200421c020085fc02003e180200e9f40200ba1c02001dfc
            0200323802004dd402007954000046600200d5e4020079540000c65c0200
            59ec0200b61c0200322002002a0c02002e1c02002e380200634c02000650
            000063c40300c5280000419c010063e00100e6680000131c0000f03c0000
            b218020063d40100c70000009358010086000000a11c0100171c00000000
            0000131c000007380100365c0200031c0100070000009320000000080000
            ba5c0200b3200200f80001006330020008000000b354020015040000b35c
            0100f5000000336000001604000033b80300b7000000334c000015040000
            1358010008040000b35c0100ce0800001354000008040000410402009358
            01000304000033f80100ce080000b31c0000f508000042380000339c0100
            de00000063e00100f7000000425c0200639401000704000063cc0100f700
            0000425c02001d3c0200b3580100c7080000935c000003040000c10c0200
            33dc0100c708000033140000d5080000421c0000d93c020063b00300a720
            000033140200a70001003354010015040000811401008200020001980300
            051c010033600100c7080000419c010063b00100e8380000b71c00000004
            000063940100f8a800009358010088040000e11c0100171c000000000000
            131c0000c70c0100365c0200031c0100070000009320000000080000ba5c
            0200b3200200f800010063680200087800001378000008040000b3140200
            050401001358010008040000137801000e040000135c010003040000b358
            0300c5080000b3d40300c5080000b3180200c60c0000c21400004d3c0200
            63dc0100d7000000425c0200639001000704000063a80100d7980000153c
            020033540100c7080000420c0000134c01000304000033dc0100c7080000
            33140000c50c0000421c0000b39c01006700000063e00300a7000000c25c
            0200639403000704000063cc0300a7000000c25c020033140200a7000100
            335401001504000081140100820002002a200200e3b80300d5d00300c19c
            010063940300f6100000b71c00000004000063880300f6800000134c0300
            86040000e1200100971c000000000000931c0200e7e400009a5c02000338
            030007000000130c00000008000046780200330c0000c304010063640000
            0310000063900300b600000063a40100c500000033200000c50001009534
            020033dc000005040000331c0200e500010042140200ba14020082000200
            931c0000f03c000063ec0300d7700000134c030086000000a12001006dfc
            0200131c0000f03c0000c2180200e3e8010007c403009358010088000000
            a11c010029dc0200b71c00000004000063980100f6680000935801008604
            0000e11c010099f40200b35c0100c6040000b358020066000000dd380200
            b3600300c5040000135c030006040000b3780300e8080000137c02000604
            0000b35c0100c5040000137c01000f040000b354020065000000dd340200
            136003000504000033580000660000003354000065000000b3e00300e808
            0000b31c0000df0c0000c220000033a003000804000063ec0100f8000000
            3660020093200200fefc0300638c0100d858000063c40100f8580000f978
            00003660020033200000f8000100b35c0100e8080000c2140000c1040200
            33e00100e8080000333c0000ff080000135c0000080400004d3c020063ec
            0100e7040000365c020093140200f7fc030063a40100d748000063dc0100
            e74c0000f95c0000365c0200c2380000c1880100b3b80300fe0000001320
            0200f2fc0300b3e003000e0400009354010006040000937803000e040000
            33e0010006040000b33c0200080c0000331c0000e7040100332002000e0c
            0000935c03000f040000b3200200b8080000c2600200c65c0200b3380200
            be08000063cc0300070400009678020041a001007d600000935403000704
            0000b3dc030007040000c21c0000b3fc03000f040000f6540200fe5c0200
            63880100b728000063380000b7200000b31c0000f500010033d40000f500
            0000b3140000b70001008934020033780200c50400003354030067000000
            33940100ae000000b354030065000000820002003360000018040000335c
            0300f50000001358010008040000b3580100c70800001378000008040000
            b35c0100f5000000137801000e040000b354020015040000dd3402009378
            030005040000334c00001504000033dc0100c7080000b31c0000de080000
            9358000007040000b3980300d604000063e00300f6000000c25802006394
            03000604000063cc0300f6000000c25802009d380200335c0300c6080000
            935c020005040000c10c0200b3d80300c6080000331c0000ee0800009354
            020006040000dd34020063e00300e5000000c25402006394030005040000
            63cc0300e5000000c2540200993402006dcc0200e3d00100f5d803003318
            0200c7000100b3dc0200c7000000b65c02009d340200b21c020099fc0200
            134c030006040000c120010001d402009358010008040000c11c0100a9ec
            02009358010006040000c11c01007dc40200360c020081200100edcc0200
            ae1c0200e1f40200c638020055d40200425c020079cc0200aa1c0200851c
            0000031c0300f7fc03006dfc030033140200a70001007d54000082000200
            971c000000000000931c0200079c0000b21802002e180200aa140200880c
            01000980020041440000221003002a1002002e140200b214020036180200
            23a002000130020006180300ef800300bf700300fd5c0100635c0000f500
            0000931c0200013402009c0c0100910c03001c000300b200010022100100
            41040000820002000a2c000000000200fc28000000000200182c00000000
            0200a22c0000000002007a2c0000000002007a2c0000000002007a2c0000
            000002007a2c000000000200262c000000000200342c000000000200422c
            000000000200502c0000000002005e2c0000000002006c2c000000000200
            862c000000000200942c00000000020030e00100000000000a40010072bc
            0100678401006d800000688401007380000065e0010069d0010065900100
            20dc010069d001006880000063bc0100649401003a000000000000000d28
            000044a40100738c01006fd8010065c801007980000073d0010061c80100
            7494010064b800000d280000000000005494010073d0010069b801006780
            000053480100413401002eb800002e3400000a000000000000000d280000
            0d2800002aa800002aa800002020010065b001006cbc01002018010072bc
            01006d80000041c801006d9401006ea40100618000002aa800002aa80000
            0d2800000000000050c8010065cc01007380000053500100414801005480
            000074bc010020880100659c010069b801002e3400000a0000000d280000
            454801000000923200009242000006c001010000000202b0000000000002
            03b003000000000006c021010000000202b000000000000203b001000000
            020000d0000000f0
            <crc>
                70c9
            </crc>
        </region>
        <region name="INIT_STAGE_1_SNVM_CLIENT" address="0x0000ca" retrieveAddressFromFile="false" size="4368" format="HEX" type="PlainText NonAuthenticated" wordSize="8" numberWords="4368" memFile="designer\BaseDesign\BaseDesign_init_stage_1_snvm.mem" memType="Microsemi Binary 32-bit" memFileTimeStamp="" clientType="public" program="true">
            <write_protect/>
            <fabric_accessible/>
            <fabric_accessible_as_rom/>
            <mss_accessible/>
            <mss_accessible_as_rom/>
            000010c032000000000f11c0b80b0000ff3f0c1200000020000000000000
            000000000000000000000000000000000000000000000000000000000000
            000000000000000000000000000000000000000000000000000000000000
            000000000000000000000000000000000000000000000000000000000000
            000000000000000000000000000000000000000000000000000000000000
            000000000000000000000000000000000000000000000000000000000000
            000000000000000000000000000000000000000000000000000000000000
            000000000000000000000000000000000000000000000000000000000000
            000000000000000000000000000000000000000000000000000000000000
            000000000000000000000000000000000000000000000000000000000000
            000000000000000000000000000000000000000000000000000000000000
            000000000000000000000000000000000000000000000000000000000000
            000000000000000000000000000000000000000000000000000000000000
            000000000000000000000000000000000000000000000000000000000000
            000000000000000000000000000000000000000000000000000000000000
            000000000000000000000000000000000000000000000000000000000000
            000000000000000000000000000000000000000000000000000000000000
            000000000000000000000000000000000000000000000000000000000000
            000000000000000000000000000000000000000000000000000000000000
            000000000000000000000000000000000000000000000000000000000000
            000000000000000000000000000000000000000000000000000000000000
            000000000000000000000000000000000000000000000000000000000000
            000000000000000000000000000000000000000000000000000000000000
            000000000000000000000000000000000000000000000000000000000000
            000000000000000000000000000000000000000000000000000000000000
            000000000000000000000000000000000000000000000000000000000000
            000000000000000000000000000000000000000000000000000000000000
            000000000000000000000000000000000000000000000000000000000000
            000000000000000000000000000000000000000000000000000000000000
            000000000000000000000000000000000000000000000000000000000000
            000000000000000000000000000000000000000000000000000000000000
            000000000000000000000000000000000000000000000000000000000000
            000000000000000000000000000000000000000000000000000000000000
            000000000000000000000000000000000000000000000000000000000000
            000000000000000000000000000000000000000000000000000000000000
            000000000000000000000000000000000000000000000000000000000000
            000000000000000000000000000000000000000000000000000000000000
            000000000000000000000000000000000000000000000000000000000000
            000000000000000000000000000000000000000000000000000000000000
            000000000000000000000000000000000000000000000000000000000000
            000000000000000000000000000000000000000000000000000000000000
            000000000000000000000000000000000000000000000000000000000000
            000000000000000000000000000000000000000000000000000000000000
            000000000000000000000000000000000000000000000000000000000000
            000000000000000000000000000000000000000000000000000000000000
            000000000000000000000000000000000000000000000000000000000000
            000000000000000000000000000000000000000000000000000000000000
            000000000000000000000000000000000000000000000000000000000000
            000000000000000000000000000000000000000000000000000000000000
            000000000000000000000000000000000000000000000000000000000000
            000000000000000000000000000000000000000000000000000000000000
            000000000000000000000000000000000000000000000000000000000000
            000000000000000000000000000000000000000000000000000000000000
            000000000000000000000000000000000000000000000000000000000000
            000000000000000000000000000000000000000000000000000000000000
            000000000000000000000000000000000000000000000000000000000000
            000000000000000000000000000000000000000000000000000000000000
            000000000000000000000000000000000000000000000000000000000000
            000000000000000000000000000000000000000000000000000000000000
            000000000000000000000000000000000000000000000000000000000000
            000000000000000000000000000000000000000000000000000000000000
            000000000000000000000000000000000000000000000000000000000000
            000000000000000000000000000000000000000000000000000000000000
            000000000000000000000000000000000000000000000000000000000000
            000000000000000000000000000000000000000000000000000000000000
            000000000000000000000000000000000000000000000000000000000000
            000000000000000000000000000000000000000000000000000000000000
            000000000000000000000000000000000000000000000000000000000000
            000000000000000000000000000000000000000000000000000000000000
            000000000000000000000000000000000000000000000000000000000000
            000000000000000000000000000000000000000000000000000000000000
            000000000000000000000000000000000000000000000000000000000000
            000000000000000000000000000000000000000000000000000000000000
            000000000000000000000000000000000000000000000000000000000000
            000000000000000000000000000000000000000000000000000000000000
            000000000000000000000000000000000000000000000000000000000000
            000000000000000000000000000000000000000000000000000000000000
            000000000000000000000000000000000000000000000000000000000000
            000000000000000000000000000000000000000000000000000000000000
            000000000000000000000000000000000000000000000000000000000000
            000000000000000000000000000000000000000000000000000000000000
            000000000000000000000000000000000000000000000000000000000000
            000000000000000000000000000000000000000000000000000000000000
            000000000000000000000000000000000000000000000000000000000000
            000000000000000000000000000000000000000000000000000000000000
            000000000000000000000000000000000000000000000000000000000000
            000000000000000000000000000000000000000000000000000000000000
            000000000000000000000000000000000000000000000000000000000000
            000000000000000000000000000000000000000000000000000000000000
            000000000000000000000000000000000000000000000000000000000000
            000000000000000000000000000000000000000000000000000000000000
            000000000000000000000000000000000000000000000000000000000000
            000000000000000000000000000000000000000000000000000000000000
            000000000000000000000000000000000000000000000000000000000000
            000000000000000000000000000000000000000000000000000000000000
            000000000000000000000000000000000000000000000000000000000000
            000000000000000000000000000000000000000000000000000000000000
            000000000000000000000000000000000000000000000000000000000000
            000000000000000000000000000000000000000000000000000000000000
            000000000000000000000000000000000000000000000000000000000000
            000000000000000000000000000000000000000000000000000000000000
            000000000000000000000000000000000000000000000000000000000000
            000000000000000000000000000000000000000000000000000000000000
            000000000000000000000000000000000000000000000000000000000000
            000000000000000000000000000000000000000000000000000000000000
            000000000000000000000000000000000000000000000000000000000000
            000000000000000000000000000000000000000000000000000000000000
            000000000000000000000000000000000000000000000000000000000000
            000000000000000000000000000000000000000000000000000000000000
            000000000000000000000000000000000000000000000000000000000000
            000000000000000000000000000000000000000000000000000000000000
            000000000000000000000000000000000000000000000000000000000000
            000000000000000000000000000000000000000000000000000000000000
            000000000000000000000000000000000000000000000000000000000000
            000000000000000000000000000000000000000000000000000000000000
            000000000000000000000000000000000000000000000000000000000000
            000000000000000000000000000000000000000000000000000000000000
            000000000000000000000000000000000000000000000000000000000000
            000000000000000000000000000000000000000000000000000000000000
            000000000000000000000000000000000000000000000000000000000000
            000000000000000000000000000000000000000000000000000000000000
            000000000000000000000000000000000000000000000000000000000000
            000000000000000000000000000000000000000000000000000000000000
            000000000000000000000000000000000000000000000000000000000000
            000000000000000000000000000000000000000000000000000000000000
            000000000000000000000000000000000000000000000000000000000000
            000000000000000000000000000000000000000000000000000000000000
            000000000000000000000000000000000000000000000000000000000000
            000000000000000000000000000000000000000000000000000000000000
            000000000000000000000000000000000000000000000000000000000000
            000000000000000000000000000000000000000000000000000000000000
            000000000000000000000000000000000000000000000000000000000000
            000000000000000000000000000000000000000000000000000000000000
            000000000000000000000000000000000000000000000000000000000000
            000000000000000000000000000000000000000000000000000000000000
            000000000000000000000000000000000000000000000000000000000000
            000000000000000000000000000000000000000000000000000000000000
            00000000000000000000ff3f0c32ff3f0c42ff3f0c520100002000000000
            000000000000000000000000000000000000000000000000000000000000
            000000000000000000000000000000000000000000000000000000000000
            000000000000000000000000000000000000000000000000000000000000
            000000000000000000000000000000000000000000000000000000000000
            00000000ff3f0c62ff3f0c72000006c001000000000202b0000000000200
            06c004040404020200b048600003020006c000000700020200b04c610003
            020006c004040404020200b048a00003020006c000000700020200b04ca1
            0003000006c000000000030000e000000000
            <crc>
                c9bb
            </crc>
        </region>
    </nvm>
</Actel_Data_File>
